-0.0704956
0.15686
0.288391
0.229797
0.0628662
-0.0866699
-0.100708
-0.083313
-0.126648
-0.123596
0.0393677
0.0631714
-0.065918
-0.166931
-0.210876
-0.245361
-0.213623
-0.126343
-0.0784302
-0.0527954
-0.0808716
-0.0448608
0.0460815
0.195312
0.332031
0.269775
0.06073
-0.0866699
-0.140991
-0.221863
-0.215454
-0.134277
-0.179749
-0.213623
-0.226135
-0.188599
-0.0454712
0.0778198
0.136414
0.206604
0.30426
0.41748
0.44342
0.468445
0.331726
0.09552
-0.0723267
-0.216064
-0.332336
-0.349426
-0.299072
-0.219421
-0.133972
-0.123291
-0.119324
-0.113525
-0.186462
-0.224915
-0.104675
0.0253296
0.150757
0.254822
0.372925
0.473938
0.47821
0.336914
0.134277
-0.0708008
-0.177307
-0.210266
-0.143127
-0.12085
-0.195618
-0.190125
-0.194702
-0.122986
-0.0613403
-0.071106
-0.0924683
-0.145264
-0.180664
-0.101624
-0.0424194
-0.012207
-0.0357056
-0.127869
-0.137634
-0.0561523
0.0588989
0.117493
0.0796509
0.038147
0.0668335
0.166321
0.233154
0.240784
0.253601
0.20752
0.129089
0.022583
-0.110474
-0.231323
-0.180969
-0.0473022
0.0506592
0.0354004
0.0521851
0.0375366
-0.0796509
-0.0784302
0.0741577
0.149536
0.158997
0.116577
-0.0610352
-0.12085
0.0244141
0.222473
0.282898
0.214539
0.072937
-0.116882
-0.138855
0.0668335
0.257874
0.240784
0.184937
0.0119019
-0.330811
-0.575256
-0.553894
-0.407715
-0.145569
0.0772095
0.205383
0.136414
-0.0415039
-0.187073
-0.193787
-0.135498
-0.155334
-0.270691
-0.239258
-0.0708008
0.115356
0.173035
0.136719
-0.057373
-0.117188
-0.085144
-0.00457764
0.18158
0.294495
0.436096
0.421753
0.163269
-0.0946045
-0.103149
-0.0857544
-0.158081
-0.169678
-0.127869
-0.0717163
-0.00183105
0.00213623
-0.0595093
-0.122986
-0.118713
-0.0726318
0.00640869
0.0997925
0.169678
0.213623
0.198364
0.204773
0.162659
0.11322
0.0524902
0.0012207
0.000305176
0.0701904
0.195618
0.264587
0.274353
0.167542
-0.0790405
-0.293884
-0.464478
-0.504456
-0.38269
-0.189209
-0.0827026
-0.0445557
-0.067749
-0.0106812
0.0881958
0.119324
0.148621
0.154724
0.10437
0.145874
0.155945
0.136108
0.0460815
-0.104065
-0.164185
-0.116272
-0.083313
-0.0561523
-0.0476074
-0.0732422
0.000610352
0.03479
0.0637817
0.135803
0.173645
0.153198
0.157776
0.115662
0.0970459
0.0366211
0.0830078
0.181274
0.263672
0.285339
0.221863
0.022583
-0.172424
-0.224304
-0.173645
-0.0735474
-0.00183105
-0.00152588
-0.0701904
-0.140381
-0.169983
-0.174255
-0.137024
-0.0985718
-0.0241089
0.130005
0.205383
0.19928
0.179138
0.133667
0.0509644
-0.0469971
-0.175476
-0.293884
-0.274658
-0.14679
-0.0814819
-0.183411
-0.328674
-0.227966
0.112915
0.408936
0.682678
0.682983
0.467224
0.280762
0.184021
0.174866
0.154724
0.0234985
-0.117188
-0.262146
-0.356445
-0.353088
-0.262451
-0.167542
-0.102234
-0.0637817
0.100098
0.222778
0.249023
0.230713
0.0872803
-0.00762939
0.108643
0.136108
0.0872803
0.0106812
-0.168762
-0.322266
-0.30304
-0.196533
-0.0415039
-0.0491333
-0.00946045
-0.0149536
-0.133057
-0.238037
-0.235596
-0.21637
-0.178223
-0.0759888
0.0241089
0.0796509
0.0665283
0.166626
0.335083
0.413818
0.32135
0.101318
-0.151062
-0.127869
-0.0289917
-0.00640869
-0.163574
-0.279236
-0.228577
-0.0946045
0.0723267
0.2005
0.227051
0.151367
0.0296021
-0.0146484
-0.0222778
0.0143433
0.0579834
0.0900269
0.1474
0.143127
0.0558472
0.0827026
0.0790405
0.114441
0.239868
0.209045
0.114441
0.0115967
-0.168152
-0.26947
-0.22522
-0.214233
-0.155334
-0.043335
0.0363159
0.00610352
-0.0756836
-0.12207
-0.107117
-0.0241089
0.0915527
0.166931
0.157166
0.143433
0.0704956
0.0378418
0.0717163
0.0753784
0.0860596
0.161438
0.214233
0.166016
0.0332642
-0.0796509
0.0863647
0.311584
0.440979
0.458679
0.350342
0.210266
0.132141
0.124512
0.149536
-0.015564
-0.196533
-0.371399
-0.758362
-0.999451
-0.907898
-0.639038
-0.267334
0.0643921
0.215759
0.26947
0.295715
0.220642
0.155945
0.139465
0.157776
0.172424
0.132751
0.0836182
0.177002
0.275879
0.16449
-0.0280762
-0.149231
-0.186157
-0.193787
-0.157471
-0.166016
-0.176392
-0.118713
0
0.15564
0.232849
0.19928
0.129089
0
-0.112
-0.148621
-0.157166
-0.144958
-0.163269
-0.119934
-0.0253296
0.0222778
-0.0271606
-0.00427246
0.0387573
0.114136
0.209045
0.231628
0.196228
0.119629
0.0582886
0.045166
0.0540161
0.0231934
-0.020752
-0.0509644
-0.115356
-0.141296
-0.152283
-0.108643
-0.0976562
-0.0131226
-0.0146484
-0.112305
-0.188599
-0.214233
-0.186462
-0.0997925
0.0289917
0.0140381
-0.0244141
-0.0186157
0.0997925
0.190735
0.196838
0.270081
0.360107
0.440369
0.617371
0.710144
0.547791
0.279236
0.212097
0.216675
0.246582
0.119324
-0.0213623
-0.28595
-0.513916
-0.494995
-0.314636
-0.241394
-0.179443
-0.255432
-0.318604
-0.192261
-0.12085
-0.144653
-0.127869
-0.0918579
-0.201111
-0.325623
-0.302429
-0.166321
0.0286865
0.152893
0.19989
0.137329
0.00610352
-0.105896
-0.154114
-0.180054
-0.102539
0.0180054
0.0894165
0.0753784
0.015564
-0.0308228
0.00946045
0.0149536
-0.00152588
0.0814819
0.143127
0.115051
0.0396729
-0.045166
-0.108032
-0.0982666
-0.0820923
-0.00854492
0.0109863
0.0393677
0.0958252
0.163574
0.203552
0.236206
0.362244
0.488281
0.497742
0.437927
0.268555
0.039978
-0.154114
-0.223694
-0.209656
-0.185242
-0.18219
-0.115967
-0.00488281
0.0012207
-0.0793457
-0.0738525
-0.134583
-0.290527
-0.34729
-0.333862
-0.246277
-0.0872803
0.062561
0.115051
0.0750732
0.0576782
0.0143433
-0.0012207
-0.0753784
-0.14679
-0.118103
-0.0167847
0.043335
0.0149536
-0.0231934
-0.0912476
-0.0979614
0.0360107
0.0842285
0.0540161
0.0622559
0.154724
0.411072
0.710144
0.887146
0.827637
0.530396
0.159912
-0.0454712
-0.102234
-0.218201
-0.53009
-0.677185
-0.587769
-0.422363
-0.325012
-0.300903
-0.344238
-0.351868
-0.19928
-0.0949097
0.00915527
0.125427
0.299377
0.472717
0.45105
0.0411987
-0.213013
-0.176392
-0.128174
-0.0970459
-0.0152588
-0.00518799
0.0143433
0.00335693
-0.0469971
-0.0918579
-0.0979614
-0.114746
-0.144958
-0.0997925
-0.0198364
0.0210571
0.0430298
0.0790405
0.0491333
0.0863647
0.0643921
-0.0592041
-0.120239
-0.0579834
0.0827026
0.198669
0.22522
0.160522
0.0537109
-0.0256348
0.0125122
0.12085
0.197144
0.282898
0.26825
0.142822
-0.0354004
-0.176392
-0.240479
-0.22583
-0.233765
-0.325012
-0.266113
-0.071106
0.0588989
0.0631714
0.0909424
0.188599
0.214233
0.220947
0.316772
0.407715
0.373535
0.306396
0.114746
-0.199585
-0.344543
-0.24231
-0.00396729
0.222778
0.47699
0.658875
0.523376
0.243835
-0.0933838
-0.441284
-0.424194
-0.308533
-0.206604
-0.101318
-0.0482178
-0.109863
-0.0421143
0.000610352
0.0180054
0.157471
0.322876
0.238953
0.0610352
-0.180359
-0.377502
-0.272217
0.0253296
0.141907
0.0292969
-0.205688
-0.524292
-0.775146
-0.821533
-0.500183
-0.0506592
0.102844
0.246887
0.299072
0.246277
0.267639
0.231628
0.114136
0.0265503
-0.107117
-0.286865
-0.40802
-0.402527
-0.251465
-0.0942993
0.0140381
0.0485229
0.0369263
0.015564
-0.0363159
-0.0286865
0.0765991
0.155945
0.09552
-0.0344849
-0.0961304
-0.00793457
0.102234
0.162354
0.117493
0.0439453
-0.0448608
-0.0683594
-0.0106812
0.0228882
0.0234985
0.0537109
0.0942993
0.197144
0.272827
0.220642
0.0906372
0.0405884
0.159912
0.310364
0.361023
0.380554
0.375671
0.119324
-0.0427246
0.0280762
0.197449
0.0732422
-0.281677
-0.306091
-0.067749
0.282898
0.464172
0.107117
-0.24292
-0.342712
-0.526123
-0.355225
-0.0848389
0.00976562
0.0662231
0.0576782
0.0378418
0.057373
-0.00915527
-0.137024
-0.065918
0.172729
0.425415
0.622559
0.513916
0.0808716
-0.288696
-0.436096
-0.423584
-0.353394
-0.231934
-0.0817871
0.083313
0.16449
0.145264
-0.0280762
-0.19928
-0.259094
-0.218811
-0.0869751
0.032959
0.0619507
-0.00793457
-0.195923
-0.228882
-0.141907
-0.0497437
-0.0338745
-0.0488281
-0.0640869
-0.0332642
-0.0354004
-0.115051
-0.144043
0.1651
0.51239
0.804443
0.788574
0.424194
-0.0628662
-0.223083
-0.204773
-0.161438
-0.0765991
-0.0360107
0.0540161
0.150757
0.0823975
-0.00244141
-0.010376
-0.0424194
-0.23468
-0.4422
-0.462952
-0.232239
0.0350952
0.190125
0.290527
0.285645
0.317078
0.376587
0.314331
0.072937
-0.0308228
-0.116272
-0.169067
-0.259399
-0.308838
-0.1828
-0.132141
-0.274048
-0.376587
-0.420837
-0.322266
-0.0421143
0.147095
0.215759
0.195618
0.150146
0.102539
0.0588989
0.205994
0.468445
0.622253
0.661621
0.51239
0.168762
-0.0393677
-0.00701904
0.108032
0.133057
-0.0131226
-0.142517
-0.183716
-0.0909424
-0.0363159
-0.0808716
-0.141907
-0.120239
0.0280762
0.189514
0.149231
-0.0979614
-0.325012
-0.396729
-0.34668
-0.250854
-0.180054
-0.132141
-0.115356
-0.156555
-0.187073
-0.0793457
-0.0158691
-0.020752
-0.176392
-0.395508
-0.320129
-0.0964355
0.103455
0.241394
0.306396
0.263062
0.116272
0.0109863
0.0286865
0.224915
0.331726
0.404053
0.294189
0.0436401
0.0201416
0.00152588
0.0741577
0.222168
0.294189
0.162964
0.0473022
-0.105896
-0.24353
-0.296021
-0.377808
-0.50415
-0.470276
-0.352478
-0.252686
-0.180054
-0.0280762
0.13855
0.211487
0.203552
0.154419
0.111694
0.124512
0.171204
0.185852
0.105896
0.0881958
0.0653076
0.00213623
-0.0396729
-0.00976562
0.0927734
0.159607
0.0482178
-0.0839233
-0.067749
-0.0259399
0.0335693
0.083313
0.0439453
0.0131226
-0.0854492
-0.105896
-0.0448608
-0.0949097
-0.176392
-0.182495
-0.0280762
0.141907
0.26123
0.288696
0.145874
-0.122681
-0.185242
-0.0894165
-0.0192261
-0.0518799
-0.083313
-0.148315
-0.213623
-0.220642
-0.17395
0
0.197144
0.323181
0.35614
0.314941
0.312805
0.335999
0.465088
0.506592
0.179138
-0.295715
-0.394287
-0.380249
-0.303955
-0.154724
0.0125122
0.221863
0.397644
0.44342
0.32135
0.127258
-0.113525
-0.24353
-0.212708
-0.0778198
-0.0790405
-0.171204
-0.0283813
0.0637817
0.0637817
-0.0350952
-0.307617
-0.431824
-0.361023
-0.191345
-0.0704956
0.0350952
0.0274658
0.020752
0.0518799
0.184937
0.201416
0.0601196
-0.0509644
-0.160828
-0.292358
-0.244446
-0.205383
-0.130005
-0.0543213
-0.0296021
-0.0317383
-0.0521851
-0.0231934
0.038147
0.0888062
0.0704956
0.00946045
0.0088501
0.0793457
0.170593
0.292358
0.30426
0.209656
0.126343
0.0189209
-0.155945
-0.162964
-0.128479
-0.0598145
0.0704956
0.214539
0.277405
0.206299
0.195618
0.211182
0.192261
0.1297
0.0299072
-0.0439453
-0.10376
-0.0772095
-0.0744629
-0.211792
-0.371399
-0.288086
-0.0854492
0.23468
0.482483
0.605164
0.54718
0.365906
0.160217
-0.0787354
-0.342712
-0.39856
-0.266418
-0.157471
-0.137024
-0.139771
-0.149536
-0.153198
-0.0753784
-0.0271606
-0.0143433
-0.115662
-0.218811
-0.31189
-0.297241
-0.0302124
0.142517
0.0592041
0.045166
0.0927734
0.136108
0.19989
0.224609
0.317078
0.452576
0.467834
0.272217
0.116882
-0.0341797
-0.170898
-0.222473
-0.265503
-0.357971
-0.340576
-0.211487
-0.0708008
0.129089
0.307007
0.403442
0.464783
0.432434
0.294189
-0.078125
-0.330811
-0.450134
-0.409546
-0.307617
-0.232849
-0.193787
-0.179749
-0.189819
-0.151978
-0.0588989
0.0460815
0.0115967
-0.0543213
-0.0869751
-0.111084
-0.0588989
-0.0180054
-0.0198364
0.0137329
0.0448608
0.0753784
0.0726318
0.0753784
0.101624
0.122986
0.161438
0.153198
0.125122
0.122375
0.114136
0.136414
0.0872803
-0.0558472
-0.0579834
0.0814819
0.218506
0.342712
0.23468
-0.0521851
-0.196838
-0.166016
0.0314331
0.300293
0.487976
0.436401
0.222168
0.0500488
-0.0930786
-0.221252
-0.27771
-0.252075
-0.159912
0.0170898
0.140076
0.027771
-0.0454712
-0.027771
-0.0402832
0.0463867
0.0146484
-0.0946045
-0.108032
-0.139771
-0.126953
-0.0534058
-0.0521851
-0.108032
-0.131226
-0.120544
-0.0772095
-0.0177002
-0.039978
-0.110474
-0.116882
-0.0939941
-0.00213623
0.13092
0.216675
0.281372
0.188599
0.027771
-0.032959
-0.0561523
-0.0778198
0.00610352
0.0765991
0.131531
0.191345
0.24292
0.263672
0.296631
0.181885
-0.118103
-0.329895
-0.350037
-0.249939
-0.0244141
0.151367
0.212402
0.141296
0.017395
-0.0375366
-0.00701904
-0.0485229
-0.157166
-0.161133
-0.106201
0.0424194
0.226135
0.320129
0.218811
0.0579834
0.0222778
-0.0744629
-0.178223
-0.158997
-0.16449
-0.189514
-0.180359
-0.154419
-0.0637817
0.00213623
0.149536
0.22522
0.19928
0.13092
-0.0521851
-0.143433
-0.0714111
-0.0357056
-0.0341797
-0.0820923
-0.136108
-0.19165
-0.200806
-0.158691
-0.0888062
0.0112915
0.144653
0.226746
0.248718
0.246582
0.166321
0.143433
0.297546
0.422974
0.428772
0.367737
0.15564
-0.0723267
-0.219116
-0.365295
-0.496521
-0.578003
-0.374146
-0.100403
0.0201416
0.0613403
-0.00579834
-0.0570679
-0.106506
-0.0158691
0.158081
0.2948
0.326233
0.290222
0.335693
0.480957
0.397949
0.0836182
-0.177307
-0.249329
-0.0949097
0.0497437
0.119324
0.172119
0.177002
0.111694
0.0411987
-0.249329
-0.45929
-0.458069
-0.325623
-0.123596
-0.0317383
0.0189209
0.0524902
0.0790405
0.0531006
-0.169678
-0.418396
-0.277405
0.0268555
0.26825
0.42572
0.233459
0.0164795
0.0357056
0.110168
-0.0134277
-0.248718
-0.374451
-0.406189
-0.431213
-0.386658
-0.265808
-0.15686
-0.0424194
0.0692749
0.0933838
0.09552
0.0942993
0.067749
0.125122
0.192871
0.211182
0.202942
0.174866
0.0582886
0.114746
0.170593
0.0582886
-0.13031
-0.193481
-0.123596
0.0012207
0.0140381
0.0158691
0.065918
0.0280762
-0.0518799
-0.0613403
-0.0653076
-0.0869751
-0.0354004
0.0787354
0.185242
0.21637
0.191345
0.126343
0.0405884
-0.0332642
-0.116272
-0.174255
-0.180664
-0.194397
-0.169983
-0.0552368
0.10437
0.257568
0.322571
0.469055
0.683899
0.834351
0.721436
0.263367
-0.252075
-0.414124
-0.356445
-0.169983
0.00305176
0.0827026
-0.085144
-0.261536
-0.364685
-0.290833
-0.0247192
0.245972
0.232544
0.187073
0.0582886
-0.0845337
-0.142212
-0.111084
-0.160217
-0.222473
-0.170898
-0.140686
-0.0738525
-0.0302124
0.0320435
0.123596
0.186462
0.0875854
-0.0210571
-0.11261
-0.143738
-0.186157
-0.174255
-0.0714111
0.038147
0.0357056
0.0231934
-0.0088501
0.00244141
0.0646973
0.175171
0.290527
0.280151
0.228271
0.137024
0.00183105
-0.1651
-0.328064
-0.429077
-0.276489
-0.0942993
0.0152588
0.0314331
0.0424194
0.0863647
0.142212
0.232544
0.267639
0.241699
0.211792
0.179749
0.185852
0.151367
0.0543213
-0.0234985
-0.0326538
-0.110779
-0.154419
-0.0857544
0.0137329
0.0601196
0.0839233
0.0762939
0.045166
0.0170898
-0.0305176
-0.0762939
-0.0970459
-0.0918579
-0.0415039
-0.00305176
-0.107422
-0.101624
-0.0012207
0.213928
0.239563
0.136719
0.0393677
-0.0201416
-0.0112915
0.101624
0.122986
0.0570679
0.0894165
0.348511
0.730286
1.11725
1.14838
0.546265
-0.32074
-0.900574
-0.972595
-0.83313
-0.697327
-0.437317
-0.261841
-0.206299
-0.204163
-0.174561
-0.13855
-0.124817
-0.0952148
-0.0888062
-0.0415039
0.03479
0.116577
0.197754
0.241699
0.189819
0.263672
0.460815
0.553894
0.503235
0.296936
-0.177307
-0.623474
-0.704651
-0.607605
-0.398865
-0.202332
-0.119934
-0.107727
-0.0878906
-0.0796509
-0.0524902
-0.0369263
-0.0256348
0
0.0296021
0.0314331
0.0231934
0.039978
0.0686646
0.0799561
0.119019
0.144958
0.183411
0.309753
0.408325
0.428162
0.343018
0.186157
-0.0692749
-0.144348
-0.0772095
-0.158691
-0.366211
-0.362854
-0.174561
-0.00274658
0.142517
0.104675
0.012207
-0.0183105
0.00823975
0.0344849
-0.00823975
-0.065918
-0.0860596
-0.0296021
0.0732422
0.198364
0.1297
-0.0668335
-0.13855
0.055542
0.270081
0.391541
0.372314
0.311279
0.217285
0.124512
0.0469971
0.0680542
0.191956
0.291748
0.142822
-0.0213623
-0.198059
-0.317383
-0.30426
-0.232239
-0.21759
-0.289001
-0.263367
-0.123901
-0.0280762
0.0497437
0.00701904
-0.171814
-0.18158
-0.0997925
-0.0723267
-0.0369263
-0.00244141
0.0198364
0.067749
0.0823975
0.0720215
0.0949097
0.169067
0.0613403
-0.0656128
-0.124817
-0.111389
-0.0753784
0.000610352
0.0582886
0.0866699
0.0247192
-0.0378418
-0.0482178
-0.00488281
0.0488281
0.101318
0.10437
0.0817871
0.0680542
0.0915527
0.142212
0.150452
0.043335
-0.110168
-0.185242
-0.21637
-0.198669
-0.117188
-0.00152588
0.000305176
-0.00976562
0.00762939
0.038147
0.0137329
0.0314331
0.0595093
0.130615
0.249634
0.254517
0.142517
0.0549316
0.015564
0.0326538
-0.0210571
-0.130005
-0.172729
-0.152893
-0.139465
-0.0482178
0.0784302
0.116272
0.0802612
0.104675
0.169678
0.111694
0.0549316
-0.0552368
-0.125122
-0.0723267
-0.0744629
-0.0241089
0.160828
0.325317
0.386353
0.645447
0.764771
0.569153
0.228271
-0.180054
-0.43396
-0.400085
-0.262146
-0.220642
-0.22522
-0.267944
-0.335083
-0.297546
-0.273132
-0.213318
-0.173645
-0.157776
-0.160828
-0.22522
-0.293579
-0.296326
-0.250244
-0.157776
-0.0234985
0.038147
0.0408936
0.0683594
0.184631
0.26062
0.297546
0.262146
0.19104
0.166626
0.0906372
0.0396729
0.0305176
0.0506592
0.0534058
0.0888062
0.0930786
0.0357056
-0.0256348
-0.0601196
-0.0476074
-0.0491333
-0.0970459
-0.0613403
0.116577
0.32959
0.479431
0.509338
0.329895
-0.0109863
-0.246887
-0.2948
-0.248718
-0.209656
-0.131836
-0.0308228
0.0842285
0.200806
0.354004
0.359802
0.249634
0.0650024
-0.111389
-0.176697
-0.207825
-0.177612
-0.0790405
-0.0891113
-0.128479
-0.117798
-0.105591
-0.161438
-0.246582
-0.337524
-0.353394
-0.140991
0.0152588
0.0820923
0.140076
0.158997
0.0753784
-0.0192261
-0.0842285
-0.0500488
0.107117
0.259705
0.367432
0.387878
0.235901
0.0527954
-0.169067
-0.290222
-0.128784
0.213623
0.532532
0.610046
0.245056
-0.106506
-0.355835
-0.393066
-0.310059
-0.213928
-0.170898
-0.113525
-0.00518799
0.0534058
0.0601196
0.0149536
-0.0485229
0.00701904
0.151672
0.434875
0.58075
0.255127
-0.203552
-0.478516
-0.55481
-0.38269
-0.232239
-0.154114
-0.11261
-0.0979614
-0.112915
-0.195312
-0.219421
-0.0964355
0.0158691
0.0396729
0.0415039
0.0750732
0.101013
0.158997
0.196838
0.2005
0.229492
0.257568
0.278015
0.258789
0.135803
-0.0201416
-0.139465
-0.259094
-0.317383
-0.214539
0.0164795
0.193176
0.313416
0.317993
0.271606
0.177307
0.0131226
-0.0765991
0.00274658
0.121155
0.186157
0.169678
0.152283
0.166321
0.174561
0.0592041
-0.0537109
0.0274658
-0.0332642
-0.072937
-0.0756836
-0.116882
-0.196228
-0.171509
-0.145569
-0.161438
-0.113525
-0.131226
-0.295715
-0.444031
-0.395813
-0.157776
0.250244
0.508118
0.414124
0.223389
0.0622559
-0.126953
-0.248718
-0.280457
-0.202332
-0.113525
0.0183105
0.206299
0.394287
0.490723
0.400085
0.102539
-0.201111
-0.340881
-0.282898
-0.155334
0.0213623
0.128784
0.0180054
-0.174866
-0.336304
-0.339661
-0.211792
-0.135803
-0.0753784
0.0289917
0.12207
0.210876
0.0888062
-0.117188
-0.101929
-0.012207
0.0170898
0.0476074
0.135193
0.167542
0.100708
0.0506592
-0.0250244
-0.0881958
-0.0888062
0.0119019
0.123596
0.287781
0.440369
0.486755
0.492249
0.392456
0.139771
-0.0793457
-0.0784302
-0.0088501
0.0134277
-0.0802612
-0.162964
-0.181885
-0.119324
0.00396729
0.0445557
0.0256348
0.102844
0.21637
0.278625
0.279236
0.135193
-0.0128174
-0.159302
-0.376892
-0.411377
-0.265503
-0.235596
-0.154419
-0.0720215
0.0289917
0.118713
0.114746
0.0875854
-0.027771
-0.148926
-0.175171
-0.139771
-0.0186157
0.128784
0.150146
0.127869
0.132446
0.0854492
0.102539
0.213318
0.220947
0.168152
0.0549316
-0.0881958
-0.158081
-0.206299
-0.271301
-0.352478
-0.354004
-0.223694
-0.0759888
-0.0100708
0.0088501
-0.0692749
-0.135803
-0.119324
-0.0494385
0.039978
0.0289917
-0.0402832
-0.124817
-0.161743
-0.131226
-0.0930786
-0.0619507
-0.0296021
0.0866699
0.243225
0.324402
0.35553
0.327454
0.140381
0.0271606
-0.045166
-0.140381
-0.248718
-0.221863
-0.0662231
0.0216675
0.109558
0.236816
0.308533
0.246582
0.130615
0.128784
0.0787354
-0.160828
-0.357971
-0.370178
-0.259094
-0.111084
-0.0326538
-0.0317383
-0.0314331
-0.0363159
0.00152588
0.00732422
-0.00701904
0.00488281
0.120544
0.259094
0.358276
0.405579
0.3125
0.180359
0.157776
0.184326
0.159912
-0.00335693
-0.206604
-0.276489
-0.129089
-0.129395
-0.135803
-0.167236
-0.167236
-0.185242
-0.2005
-0.154419
-0.0119019
0.0149536
-0.0827026
-0.146179
-0.119629
0.0289917
0.158081
0.172729
0.0787354
-0.105286
-0.204468
-0.212097
-0.212097
-0.24353
-0.23468
-0.090332
0.0576782
0.151062
0.260925
0.348511
0.210571
-0.0180054
-0.0701904
-0.122375
-0.1297
-0.00518799
0.10437
0.131531
0.140686
0.0357056
-0.0845337
-0.124512
-0.0598145
0.0204468
0
-0.0283813
0
0.187378
0.392456
0.501709
0.473633
0.313416
0.105896
-0.0534058
-0.159302
-0.239868
-0.127869
-0.0320435
-0.0256348
-0.0881958
-0.133362
-0.183411
-0.136414
-0.131531
-0.177002
-0.22583
-0.176086
-0.11261
-0.103149
-0.0604248
-0.0146484
0.0393677
0.129089
0.137024
0.0698853
-0.0274658
-0.0823975
-0.108643
-0.128174
-0.0921631
-0.0668335
-0.0128174
0.0869751
0.159302
0.172119
0.0753784
-0.0588989
-0.105896
-0.0738525
-0.0204468
0.0460815
0.0750732
0.0186157
-0.0448608
-0.0646973
-0.0888062
-0.0692749
-0.0430298
0.0100708
0.0665283
0.159607
0.248108
0.221558
0.192566
0.288696
0.351562
0.318298
0.216675
0.108643
0.0244141
-0.078125
-0.111389
-0.0570679
0.0338745
0.109558
-0.0125122
-0.166016
-0.205994
-0.229187
-0.190125
-0.0604248
0.0192261
0.0402832
0.0778198
0.0732422
0.027771
-0.012207
-0.0720215
-0.158081
-0.164795
-0.143127
-0.100098
-0.108032
-0.140686
-0.162659
-0.1474
-0.0985718
-0.0253296
0.06073
0.168762
0.336609
0.521851
0.592957
0.603638
0.409546
0.0799561
-0.190125
-0.418701
-0.506592
-0.453796
-0.367126
-0.299683
-0.226746
-0.0912476
-0.0634766
-0.0854492
-0.0585938
0.0146484
0.10437
0.112305
-0.00427246
-0.157471
-0.193176
-0.184937
-0.148315
-0.0582886
0.0692749
0.201416
0.293274
0.358276
0.283508
0.0860596
-0.0732422
-0.105896
-0.104065
0.00823975
0.126038
0.192566
0.182495
0.0927734
0.038147
0.017395
-0.0012207
-0.0561523
-0.157166
-0.168762
-0.18158
-0.139771
-0.0817871
-0.0708008
-0.0558472
0.00823975
0.0759888
0.0982666
0.0698853
0.0341797
0.0149536
0.0616455
0.10498
0.105896
0.104675
0.153503
0.230713
0.328064
0.369568
0.291443
0.109253
-0.0524902
-0.109253
0.0137329
0.201111
0.16449
-0.0424194
-0.093689
-0.133667
-0.101624
-0.124817
-0.239258
-0.326843
-0.341492
-0.195923
-0.0112915
0.153809
0.258789
0.173035
0.00823975
-0.163269
-0.361023
-0.291443
-0.149536
-0.0378418
0.0314331
0.0881958
0.120239
0.129395
0.128174
0.0631714
0.0830078
0.127258
0.161438
0.159302
0.122681
0.0970459
-0.00640869
-0.220642
-0.352173
-0.323792
-0.198059
-0.0332642
0.122375
0.207214
0.224609
0.223999
0.115967
-0.0253296
-0.111694
-0.0854492
-0.0579834
-0.0720215
-0.0848389
-0.0604248
-0.0314331
-0.0259399
-0.0180054
-0.0128174
-0.0802612
-0.14679
-0.146179
-0.0878906
0.00610352
0.0302124
-0.0653076
-0.189514
-0.218506
-0.194397
-0.133362
-0.0320435
0.0888062
0.108337
0.125732
0.130005
0.0692749
0.0485229
0.0466919
0.116577
0.185852
0.145264
0.0241089
-0.0634766
-0.0949097
-0.140991
-0.0997925
0.00183105
0.055542
0.176697
0.384827
0.487366
0.474243
0.448303
0.332947
0.126343
-0.0531006
-0.150146
-0.17395
-0.221252
-0.231323
-0.226135
-0.193481
-0.146179
-0.0854492
0.0744629
0.218506
0.205688
0.16571
0.126038
0.107117
0.101929
0.0189209
-0.127258
-0.195007
-0.152893
-0.0793457
-0.0872803
-0.055542
-0.00854492
-0.0564575
-0.0939941
-0.137329
-0.161743
-0.117493
-0.0531006
-0.0222778
-0.00457764
0.0280762
0.0527954
0.0167847
-0.0726318
-0.146179
-0.0415039
0.113525
0.248413
0.2771
0.194397
0.0515747
-0.100403
-0.0875854
0.00213623
0.0201416
-0.0570679
-0.137939
-0.187988
-0.115967
0.0137329
0.119019
0.198975
0.265808
0.177917
0.0244141
-0.113525
-0.115967
-0.0408936
0.00396729
-0.0460815
-0.156555
-0.177612
-0.128174
-0.0549316
0.0143433
0.0524902
0.043335
-0.0424194
-0.155029
-0.197449
-0.223694
-0.254211
-0.257568
-0.224609
-0.0961304
0.071106
0.184326
0.241089
0.287781
0.326843
0.379944
0.282898
0.177307
0.0741577
0.0653076
0.166321
0.189209
0.0198364
-0.138855
-0.156555
-0.148621
-0.135803
-0.0765991
0.0442505
0.101929
0.098877
0.00213623
-0.0384521
-0.0512695
0.020752
0.125122
0.151672
0.122375
-0.00366211
-0.107727
-0.0341797
0.15686
0.368042
0.385742
0.232239
0.0827026
-0.136108
-0.305481
-0.315552
-0.303345
-0.244446
-0.133972
-0.00854492
0.104675
0.226135
0.234375
0.0305176
-0.1474
-0.205078
-0.282593
-0.333557
-0.295715
-0.244446
-0.122986
0.0384521
0.162964
0.233459
0.213928
0.119324
0.0582886
0.0326538
0.0164795
0.0198364
-0.0408936
-0.215454
-0.282288
-0.176697
-0.0881958
0.0631714
0.0982666
0.0790405
0.0576782
0.0305176
0.0271606
0.0402832
0.0692749
0.0692749
0.0100708
-0.045166
-0.0640869
-0.0234985
0.115967
0.352173
0.6073
0.799561
0.775452
0.452576
0.0430298
-0.155334
-0.138245
-0.0650024
-0.0915527
-0.0924683
-0.179138
-0.3479
-0.519409
-0.559692
-0.450745
-0.27771
-0.132446
0.0125122
0.0973511
0.0671387
-0.0271606
-0.0967407
-0.106506
-0.100403
-0.0671387
-0.0570679
-0.0518799
0.00518799
0.205078
0.385437
0.485229
0.505676
0.353394
0.0747681
-0.0485229
-0.0836182
-0.141296
-0.175476
-0.0765991
-0.101318
-0.227356
-0.263672
-0.238647
-0.0881958
0.0537109
0.0473022
0.0448608
0.0796509
0.126038
0.220642
0.283203
0.21759
0.0814819
-0.0143433
-0.0393677
-0.0473022
-0.0112915
0.0680542
0.0137329
-0.155334
-0.209045
-0.055542
0.128174
0.255737
0.292358
0.19165
0.0439453
-0.0411987
-0.0372314
-0.0616455
-0.142822
-0.195312
-0.186768
-0.168457
-0.0762939
0.0668335
0.147705
0.0964355
-0.0402832
-0.224915
-0.266724
-0.185852
-0.0393677
0.0875854
0.0662231
-0.103455
-0.198059
-0.0363159
0.131531
0.184326
0.142212
0.121765
0.0772095
-0.0469971
-0.0628662
0.0247192
0.0650024
0.169067
0.294189
0.291138
0.22583
0.101624
-0.0628662
-0.0967407
-0.0491333
-0.0427246
-0.0338745
0.0366211
0.107727
0.185852
0.0827026
-0.0106812
-0.140991
-0.278625
-0.283813
-0.0836182
0.0848389
0.194092
0.124817
-0.0802612
-0.323792
-0.393066
-0.349426
-0.209961
-0.085144
0.00793457
0.0396729
0.0692749
0.155029
0.13855
0.107727
0.0631714
0.038147
0.0244141
-0.0274658
-0.0537109
-0.0683594
-0.03479
0.038147
0.0561523
0.115051
0.174255
0.256348
0.366211
0.378418
0.25238
0.189514
0.0778198
-0.09552
-0.160522
-0.118713
-0.0427246
-0.0375366
-0.10376
-0.19165
-0.208435
-0.195007
-0.162354
-0.110474
-0.105591
-0.0695801
0.0210571
0.118103
0.191345
0.194092
0.083313
-0.0714111
-0.160828
-0.133057
-0.0656128
-0.00946045
0.0216675
-0.0170898
-0.0796509
-0.0808716
-0.0189209
0.0454712
0.0125122
-0.027771
-0.0918579
-0.157471
-0.185852
-0.16571
-0.0299072
0.120544
0.207825
0.168152
0.11261
0.214539
0.201111
0.0283813
-0.151367
-0.323792
-0.354004
-0.26123
-0.0897217
0.220032
0.431519
0.529175
0.72937
0.793762
0.691833
0.413513
-0.055542
-0.511475
-0.58075
-0.391541
-0.172729
-0.0967407
-0.0506592
-0.0143433
-0.0125122
0.0421143
0.0311279
-0.0549316
-0.151367
-0.227661
-0.324707
-0.337219
-0.197754
-0.0802612
-0.0344849
-0.00915527
0.0436401
0.0518799
-0.071106
-0.204468
-0.218506
-0.198669
-0.153503
-0.0961304
-0.0112915
-0.0808716
-0.117493
-0.112
-0.0775146
-0.0231934
0.0286865
0.101013
0.193787
0.302429
0.307617
0.237732
0.0802612
-0.0469971
-0.113525
-0.129089
-0.0595093
0.0350952
0.109863
0.186462
0.289917
0.352783
0.339661
0.421448
0.467224
0.351257
0.238953
0.198059
-0.0216675
-0.26123
-0.366211
-0.377808
-0.360107
-0.348816
-0.32196
-0.281067
-0.217896
-0.211487
-0.18219
-0.0857544
0.112
0.281372
0.338135
0.194397
-0.0149536
-0.151978
-0.223694
-0.238342
-0.279541
-0.275574
-0.180664
0.00335693
0.150757
0.0848389
-0.00518799
-0.0247192
-0.0350952
-0.0509644
-0.0527954
0.00946045
0.192566
0.322571
0.351257
0.251465
0.083313
-0.022583
-0.118713
-0.15564
-0.0485229
0.105286
0.16571
0.211792
0.240479
0.166931
0.0582886
0.0411987
0.0415039
-0.0482178
-0.0994873
-0.20874
-0.23407
-0.161133
-0.183105
-0.203552
-0.134888
-0.027771
0.0930786
0.193176
0.224915
0.141296
-0.045166
-0.21759
-0.160522
-0.0317383
0.140381
0.248413
0.251465
0.15625
0.00915527
-0.130005
-0.19928
-0.166321
-0.0497437
0.119629
0.26825
0.292358
0.155945
-0.0283813
-0.157471
-0.212402
-0.254211
-0.25177
-0.313721
-0.2948
-0.194397
-0.0997925
0.0137329
0.0619507
0.0369263
0.0137329
0.0112915
-0.0283813
-0.00213623
0.0430298
-0.00457764
-0.00610352
0.0796509
0.137329
0.160522
0.154724
0.0698853
0.00671387
-0.0701904
-0.0982666
-0.0747681
-0.134888
-0.19043
-0.133057
-0.0772095
0.0210571
0.163269
0.3302
0.467529
0.431213
0.1651
-0.107422
-0.183105
-0.0469971
0.274048
0.557251
0.796509
0.665283
0.0952148
-0.526733
-0.756531
-0.658569
-0.411987
-0.215149
-0.118103
-0.057373
-0.093689
-0.134583
-0.195923
-0.200806
-0.171204
-0.140076
-0.110168
-0.0234985
-0.0109863
0.00488281
0.0561523
0.0961304
0.09552
0.106506
0.114136
0.0802612
0.0875854
0.129395
0.178528
0.161133
0.0485229
-0.0518799
-0.105896
-0.098877
-0.0442505
-0.0527954
-0.104065
-0.111694
-0.0891113
-0.10376
-0.0360107
0.0216675
0.0881958
0.26886
0.465698
0.628662
0.626831
0.283813
-0.174561
-0.39978
-0.352783
-0.278931
-0.158691
0.0500488
0.137634
0.235596
0.277405
0.214233
0.132751
0.0387573
0.0543213
0.116272
0.140686
0.219727
0.246277
0.113525
-0.112
-0.26947
-0.348206
-0.422058
-0.469055
-0.413513
-0.284729
-0.229187
-0.166321
-0.0500488
-0.012207
0.0390625
0.0927734
0.18158
0.172729
0.126343
0.148621
0.185852
0.196838
0.139771
0.0180054
-0.0897217
-0.0646973
0.0213623
0.0741577
0.0497437
-0.0268555
-0.0231934
0.134888
0.30426
0.380859
0.290833
0.18219
0.0604248
0.0393677
0.0799561
0.0778198
0.0149536
-0.0512695
-0.170288
-0.178528
-0.101624
-0.010376
0.0485229
0.103149
0.0909424
0.00518799
-0.0793457
-0.152893
-0.150452
-0.0186157
0.012207
-0.0802612
-0.0454712
0.0265503
-0.0375366
-0.127258
-0.0613403
0.0714111
0.158386
0.133667
0.0708008
-0.0402832
-0.0689697
0.00396729
0.109558
0.13031
0.032959
-0.0567627
-0.0866699
0.0140381
0.202942
0.314941
0.328064
0.265808
0.0613403
-0.180969
-0.215149
-0.169067
-0.195618
-0.183105
-0.160828
-0.168152
-0.180359
-0.0982666
0.0473022
0.14801
0.27832
0.317383
0.119324
-0.158081
-0.271912
-0.265198
-0.250549
-0.212097
-0.169067
-0.179443
-0.189514
-0.174866
-0.145569
-0.0845337
-0.0952148
-0.0708008
-0.0369263
0.0216675
0.0650024
0.062561
0.117493
0.17395
0.162048
0.137024
0.111694
0.0918579
0.057373
0.0500488
0.0164795
-0.0335693
-0.0491333
-0.015564
0.078125
0.250549
0.43335
0.53009
0.405884
0.206909
-0.039978
-0.205383
-0.1297
0.0534058
0.177307
0.162964
0.104065
-0.0280762
-0.265198
-0.357361
-0.240784
-0.0784302
0.114136
0.250854
0.297852
0.194092
0.126343
0.186157
0.136414
-0.0820923
-0.198059
-0.244446
-0.289001
-0.229492
-0.168152
-0.111694
-0.0787354
-0.0402832
0.108337
0.2771
0.223999
0.0964355
-0.0588989
-0.124817
-0.098877
-0.0354004
0.098877
0.257874
0.359497
0.298157
0.127258
-0.139465
-0.246887
-0.175476
-0.126953
-0.0637817
0.0430298
0.0296021
-0.0735474
-0.148315
-0.176392
-0.0686646
0.0134277
-0.0146484
-0.0567627
-0.0500488
-0.0830078
-0.105896
-0.103149
-0.106201
-0.111389
-0.0979614
-0.0393677
0.0302124
0.101318
0.112915
0.126343
0.146179
0.125732
0.0802612
-0.00152588
-0.0796509
-0.105896
-0.0509644
0.0152588
0.0808716
0.112
0.172729
0.247803
0.246887
0.105896
-0.0704956
-0.169983
-0.105286
0.109558
0.242004
0.293579
0.305481
0.245056
0.10376
0.000305176
-0.0949097
-0.0100708
0.129089
0.131531
0.0213623
-0.0790405
-0.182495
-0.224915
-0.245056
-0.195007
-0.0787354
0.00701904
0.0326538
0.0454712
0
-0.0540161
-0.0219727
0.120239
0.313721
0.37323
0.365295
0.302124
0.13855
0.0622559
0.085144
-0.050354
-0.23468
-0.317078
-0.299072
-0.219727
-0.0259399
0.0427246
0.0637817
0.0228882
-0.112305
-0.162659
-0.0683594
-0.00762939
-0.0289917
-0.0942993
-0.160522
-0.140381
-0.0741577
-0.0588989
-0.133362
-0.151367
-0.137939
-0.0390625
0.108337
0.13916
0.198669
0.275574
0.254211
0.202637
0.0439453
-0.117798
-0.151367
-0.118103
-0.06073
-0.0979614
-0.170593
-0.167847
-0.0778198
0.0210571
0.0769043
0.0640869
-0.0167847
-0.111389
-0.109863
-0.0924683
-0.0762939
-0.027771
0.0497437
0.13092
0.172729
0.185242
0.105896
-0.0088501
-0.0653076
0.00610352
0.148315
0.274963
0.388489
0.409851
0.351562
0.196533
-0.0466919
-0.203247
-0.176392
-0.0518799
0.0299072
0.0689697
0.0500488
-0.0430298
-0.0592041
-0.0567627
-0.157776
-0.203552
-0.159912
-0.162048
-0.151062
-0.135803
-0.167847
-0.205688
-0.180664
-0.117188
-0.039978
0.03479
0.0595093
0.0701904
0.0646973
0.00579834
-0.0698853
-0.0354004
0.055542
0.1474
0.152588
0.06073
0.0198364
-0.0213623
-0.0408936
0.0262451
0.0982666
0.117188
0.121765
0.113525
-0.0454712
-0.160217
-0.209045
-0.147095
-0.0387573
0.0695801
0.126038
0.0671387
-0.0915527
-0.150452
-0.0796509
0.00457764
0.117493
0.213318
0.212708
0.0976562
0.00946045
-0.0332642
-0.0537109
-0.112305
-0.204468
-0.287781
-0.265198
-0.180664
-0.0778198
-0.0802612
-0.111389
-0.0704956
0.0164795
0.027771
0.055542
0.0549316
0.123901
0.203552
0.192261
0.0790405
0.062561
0.0814819
0.144043
0.178223
0.0335693
-0.135193
-0.167847
-0.0827026
0.000915527
0.0485229
0.0164795
-0.0567627
-0.0473022
0.0326538
0.131531
0.135193
0.0830078
-0.0326538
-0.0714111
0.0561523
0.236816
0.390015
0.4245
0.214233
-0.0869751
-0.275574
-0.284424
-0.221558
-0.185852
-0.17395
-0.115356
-0.0518799
0.0234985
0.0250244
0.0292969
0.0012207
-0.0637817
-0.0827026
-0.0598145
0.0265503
0.145264
0.197449
0.132141
0.0372314
-0.0390625
-0.14801
-0.131226
-0.0842285
-0.0576782
-0.0396729
0.0354004
-0.00183105
-0.137329
-0.235901
-0.321045
-0.348206
-0.307312
-0.332031
-0.281982
-0.110168
0.0109863
0.0601196
0.113831
0.108948
0.122375
0.1474
0.119324
0.170898
0.320129
0.361023
0.357056
0.278931
0.243225
0.298157
0.372925
0.462952
0.172729
-0.229187
-0.33783
-0.33905
-0.281372
-0.227966
-0.156555
-0.0686646
0.0463867
0.0634766
0.0216675
-0.0140381
-0.0289917
-0.0204468
-0.0152588
-0.0949097
-0.180054
-0.117493
0.0369263
0.101013
0.104065
0.189819
0.192261
0.0756836
0.0830078
0.0299072
-0.156555
-0.30365
-0.290527
-0.193787
-0.0857544
-0.0253296
0.0125122
0.0613403
0.0680542
0.0643921
0.0241089
-0.0863647
-0.118408
-0.0866699
-0.0509644
-0.0241089
0.0201416
0.0814819
0.196838
0.238342
0.120239
0.0436401
-0.00549316
-0.0537109
-0.0576782
-0.0314331
-0.0457764
-0.0491333
0.0012207
0.12207
0.2005
0.202942
0.126953
0.0228882
-0.0170898
-0.0500488
-0.0357056
0.0213623
-0.00640869
-0.0469971
-0.137024
-0.219116
-0.239258
-0.178528
-0.0537109
0.012207
0.0463867
0.0967407
0.169983
0.124207
-0.0241089
-0.188599
-0.249939
-0.144653
0.118103
0.308228
0.353394
0.293884
0.139465
-0.0601196
-0.294495
-0.285339
-0.127258
0.0360107
0.250244
0.296936
0.244446
0.273438
0.273743
0.101624
-0.106506
-0.192566
-0.166626
-0.140076
-0.107727
-0.171204
-0.270996
-0.262146
-0.215149
-0.126648
-0.0234985
0.0143433
-0.0476074
-0.108643
-0.0469971
-0.012207
0.0378418
0.115967
0.152588
0.123901
0.0546265
0.0592041
0.102234
0.0430298
-0.0506592
-0.0509644
0.0177002
0.100708
0.13031
0.145264
0.102844
0.0177002
0.00183105
0.0177002
0.131531
0.212097
0.221558
0.134583
0.0811768
0.0198364
0.0140381
0.125732
0.19989
0.0622559
-0.0637817
0.0744629
0.145264
0.06073
-0.0894165
-0.296021
-0.415955
-0.255737
-0.0759888
0.0180054
0.0772095
0.00793457
-0.0161743
0.0646973
0.10498
0.0320435
-0.0567627
-0.201721
-0.296936
-0.332336
-0.274353
-0.160828
0.038147
0.115051
0.0152588
-0.0646973
-0.0747681
-0.0588989
0.0106812
0.0717163
-0.00366211
-0.0238037
0.124512
0.320435
0.391235
0.410461
0.33844
0.0335693
-0.162964
-0.137024
-0.0588989
-0.0579834
-0.124207
-0.150146
0.0192261
0.209351
0.255127
0.169678
-0.0656128
-0.2948
-0.265198
-0.0088501
0.272217
0.375977
0.313416
0.168152
-0.0820923
-0.285034
-0.287781
-0.188293
-0.106506
0.0527954
0.196228
0.205688
0.0949097
-0.0436401
-0.130005
-0.135193
-0.0357056
0.00274658
-0.0491333
-0.0350952
0.0268555
0.0509644
-0.0256348
-0.118408
-0.124817
-0.126648
-0.111389
-0.027771
0.0244141
0.020752
0
0.00854492
0.0158691
-0.00457764
0.0540161
0.198364
0.306396
0.386047
0.296936
0.093689
-0.0543213
0.00152588
0.0341797
-0.145874
-0.336609
-0.33905
-0.196533
-0.0518799
0.10437
0.172729
0.0653076
0.0350952
0.0311279
0.0402832
0.0323486
0.0201416
-0.0430298
-0.0997925
-0.14679
-0.143738
-0.106201
-0.0366211
-0.00183105
0.0549316
0.172424
0.272217
0.232239
0.289612
0.287781
0.206604
0.133972
-0.0473022
-0.208435
-0.226135
-0.189819
-0.230408
-0.30304
-0.230408
-0.083313
-0.0323486
-0.0115967
0.00640869
0.0256348
0.0408936
-0.00701904
-0.045166
-0.0735474
-0.0296021
0.0204468
0.107117
0.259094
0.34729
0.284729
0.171509
0.123901
0.0985718
0.116882
0.1474
0.164185
0.202026
0.2005
0.0772095
-0.112
-0.367737
-0.41687
-0.291748
-0.221863
-0.133667
-0.00823975
0.0863647
0.143738
0.143127
0.0946045
0.157471
0.220032
0.197449
0.203857
0.147705
0.0506592
-0.0686646
-0.345459
-0.452881
-0.371399
-0.240173
-0.110168
-0.0125122
0.0735474
0.1651
0.236511
0.138245
-0.015564
-0.107727
-0.138855
-0.198364
-0.296631
-0.281982
-0.129395
0.0357056
0.178833
0.240479
0.205994
0.115967
0.062561
-0.0378418
-0.0918579
-0.0463867
0.00396729
0.0402832
0.0918579
0.0479126
0.0131226
-0.0268555
-0.0418091
-0.0292969
-0.0415039
-0.128479
-0.20752
-0.162964
-0.0491333
0.120544
0.242615
0.186768
0.0720215
-0.038147
-0.0686646
-0.105896
-0.118408
-0.160828
-0.0790405
0.00823975
0.0701904
0.0253296
0.010376
0.0146484
-0.00915527
-0.0482178
-0.106506
-0.14801
-0.123901
-0.0915527
-0.00366211
0.134583
0.274353
0.308533
0.290833
0.317688
0.419617
0.405579
0.254211
0.121155
-0.0332642
-0.160522
-0.212097
-0.142212
-0.0408936
0.0354004
0.0778198
0.101013
0.203247
0.384827
0.345764
0.111694
-0.0564575
-0.137329
-0.245972
-0.373535
-0.37384
-0.369568
-0.35675
-0.194397
0.101929
0.350342
0.432129
0.275269
-0.0088501
-0.154114
-0.136414
-0.110474
0.0222778
0.157471
0.169373
0.140076
0.0247192
-0.143738
-0.288391
-0.31189
-0.222168
-0.148315
-0.0692749
-0.0204468
0.0183105
0.0485229
0.0875854
0.192261
0.294495
0.357361
0.361023
0.268555
0.085144
-0.0881958
-0.20813
-0.201416
-0.158691
-0.136108
-0.119324
-0.072937
0.0164795
0.108948
0.202637
0.198669
0.151672
0.100098
-0.0363159
-0.155334
-0.0784302
-0.0305176
-0.0494385
-0.043335
-0.0112915
0.0213623
0.0134277
0.0012207
-0.0286865
-0.00854492
-0.0506592
-0.038147
-0.0521851
-0.06073
-0.055542
-0.0112915
0.0735474
0.187988
0.372009
0.445251
0.450439
0.381165
0.204773
0.0012207
-0.0549316
-0.0741577
-0.160217
-0.223083
-0.210571
-0.160217
-0.104675
-0.0509644
0.0424194
0.1297
0.0848389
-0.0415039
-0.155945
-0.143433
-0.0796509
0
0.0314331
0.0259399
0.0793457
0.21637
0.375366
0.405579
0.342102
0.215759
0
-0.20813
-0.264893
-0.157776
-0.0552368
0.0256348
0.0518799
0.00488281
-0.0775146
-0.104065
-0.128174
-0.180969
-0.219421
-0.168152
-0.0592041
0.0308228
0.0354004
-0.0369263
-0.0820923
-0.135803
-0.119629
-0.0149536
0.0671387
0.125427
0.00213623
-0.0735474
-0.0793457
-0.0296021
0.0418091
0.102234
0.078125
0.00183105
-0.101013
-0.166931
-0.158691
-0.133057
-0.115967
-0.119934
-0.0915527
0.0534058
0.255737
0.405884
0.428162
0.324402
0.122986
-0.0161743
-0.0271606
0.00366211
0.0506592
0.0827026
0.0427246
0.0134277
-0.0479126
-0.11261
-0.192871
-0.154419
-0.0262451
0.162354
0.353394
0.371399
0.142517
-0.102234
-0.212097
-0.216064
-0.16449
-0.0979614
-0.0396729
-0.0115967
0.0357056
0.134277
0.239563
0.452881
0.509644
0.245361
-0.0527954
-0.252686
-0.335999
-0.247192
-0.214539
-0.191956
-0.181885
-0.19043
-0.210876
-0.152588
-0.0357056
0.221863
0.447693
0.486755
0.368958
0.174561
-0.0845337
-0.293884
-0.367737
-0.274353
-0.0177002
0.132446
0.175476
0.158997
0.120239
0.0704956
-0.0744629
-0.174561
-0.153503
-0.0442505
0.125122
0.247803
0.288086
0.361023
0.353699
0.314941
0.205688
-0.0296021
-0.314941
-0.481873
-0.503845
-0.388489
-0.268555
-0.160828
-0.0976562
-0.0808716
-0.11322
-0.111084
-0.0543213
-0.045166
-0.115662
-0.172729
-0.174561
-0.14801
-0.0213623
0.179749
0.32135
0.256042
0.0619507
0.0280762
-0.00396729
-0.0012207
0.0354004
-0.0100708
0.000305176
0.184937
0.353394
0.419617
0.378113
0.189209
-0.0991821
-0.221252
-0.244446
-0.293274
-0.227661
-0.065918
0.0866699
0.177917
0.142212
-0.0192261
0.0314331
0.130005
0.20874
0.205078
0.114441
-0.088501
-0.176392
-0.0866699
0.090332
0.309753
0.43335
0.40802
0.148315
-0.0964355
-0.0393677
0.0473022
0.0338745
0
-0.0646973
-0.185852
-0.254517
-0.242615
-0.295715
-0.357361
-0.332336
-0.258179
-0.139465
0.0378418
0.100098
0.136414
0.119019
0.117493
0.158081
0.0558472
-0.0430298
-0.105286
-0.155029
-0.232544
-0.324097
-0.40741
-0.353699
-0.204163
-0.0592041
0.0891113
0.161133
0.1297
0.142822
0.155029
0.09552
-0.0112915
-0.0131226
0.0204468
0.0131226
0.0643921
0.189819
0.306396
0.26947
0.118103
-0.0112915
-0.0387573
-0.00457764
0.0534058
0.161438
0.273743
0.33783
0.367126
0.237122
0.0970459
0.00274658
-0.00579834
-0.0112915
-0.110779
-0.188599
-0.102539
-0.00152588
0.0408936
0.0088501
-0.169678
-0.307312
-0.291748
-0.267639
-0.252075
-0.265808
-0.245056
-0.233459
-0.257874
-0.205994
-0.0646973
0.0375366
0.071106
0.0762939
0.136719
0.171509
0.162048
0.105286
0.0344849
0.0408936
0.0549316
0.0604248
0.0918579
0.161438
0.324707
0.498657
0.465088
0.267029
0.0213623
-0.233459
-0.445862
-0.513306
-0.398254
-0.196838
-0.0912476
-0.0662231
-0.0585938
0.0158691
0.0598145
0.132751
0.141602
0.0689697
-0.0115967
-0.109253
-0.187378
-0.174255
-0.0369263
0.19165
0.423889
0.460205
0.284729
0.0012207
-0.166321
0.0137329
0.340881
0.45166
0.267029
-0.0436401
-0.333252
-0.452271
-0.420532
-0.34668
-0.281677
-0.219727
-0.0857544
0.0613403
0.149536
0.175476
0.136108
0.0280762
0.000305176
-0.0741577
-0.0927734
-0.128479
-0.137024
-0.0485229
0.0271606
0.00274658
-0.0704956
-0.123291
-0.148315
-0.116882
0.000915527
0.0408936
0.0271606
0.0424194
0.0927734
0.0738525
0.0506592
0.0592041
0.0723267
0.0723267
0.0997925
0.12146
0.115662
-0.100708
-0.196228
-0.105286
-0.0271606
-0.0283813
-0.107727
-0.175476
-0.169983
-0.085144
0.00732422
0.0961304
0.269165
0.433044
0.455017
0.362549
0.214539
0.0848389
-0.174255
-0.342712
-0.332031
-0.253601
-0.173645
-0.0891113
0.10498
0.216064
0.21759
0.149231
0.020752
-0.010376
0.0952148
0.174561
0.270691
0.366211
0.292664
0.0228882
-0.158997
-0.247192
-0.288391
-0.309753
-0.23407
-0.111084
-0.0521851
0
0.136108
0.16571
0.107117
0.00946045
-0.0839233
-0.107727
-0.0842285
-0.00305176
0.0231934
-0.0411987
-0.0549316
-0.00183105
0.027771
0.032959
0.0787354
0.0912476
0.0579834
-0.0167847
-0.0335693
0.0497437
0.107117
0.177917
0.166626
0.0299072
-0.166931
-0.274048
-0.209656
-0.141296
-0.125122
-0.184021
-0.191956
-0.178528
-0.111694
-0.00976562
0.0634766
0.0448608
0.0137329
0.0778198
0.183105
0.295715
0.484009
0.52948
0.447998
0.288086
0.150146
-0.0604248
-0.174866
-0.198364
-0.209656
-0.26001
-0.324402
-0.359192
-0.259705
-0.071106
-0.00305176
-0.00274658
0.0305176
0.0350952
-0.00640869
-0.0286865
0.0256348
0.0814819
0.0878906
0.110779
0.154724
0.212708
0.229187
0.229492
0.119019
-0.0213623
-0.105896
-0.159302
-0.168152
-0.159302
-0.224304
-0.284119
-0.174255
-0.0265503
0.0588989
0.12146
0.106812
0.0848389
0.0836182
0.0653076
0.0506592
0.015564
-0.0143433
0.110168
0.299377
0.426636
0.419312
0.219727
-0.151672
-0.374756
-0.334473
-0.220642
-0.150757
-0.116272
-0.141602
-0.309143
-0.328674
-0.271606
-0.187988
0.027771
0.285645
0.494385
0.569763
0.356445
0.0509644
-0.177612
-0.179138
-0.105896
0.00823975
0.115967
0.157471
0.0686646
-0.0549316
-0.102844
-0.121155
-0.13855
-0.131226
-0.135803
-0.0576782
0.196228
0.313416
0.310669
0.309143
0.170593
-0.0527954
-0.100098
-0.0463867
0.0662231
0.11261
0.174561
0.134888
0.032959
-0.0244141
-0.0131226
-0.0326538
-0.0247192
-0.0973511
-0.1651
-0.0939941
-0.00518799
0.0473022
0.027771
-0.0341797
-0.0753784
-0.00823975
0.083313
0.0790405
-0.0268555
-0.0686646
-0.14679
-0.214233
-0.135498
-0.0933838
-0.0686646
-0.0839233
-0.116272
-0.13855
-0.0909424
-0.0366211
-0.00793457
0.0405884
0.027771
0.0747681
0.246582
0.356445
0.372925
0.239868
-0.0341797
-0.253906
-0.201111
0.0540161
0.21637
0.316162
0.354309
0.227661
0.105896
0.0680542
-0.0439453
-0.110474
-0.0915527
0.00671387
0.107117
0.0320435
-0.115356
-0.231628
-0.334167
-0.414429
-0.283508
-0.0747681
-0.0198364
-0.0622559
-0.0970459
-0.0390625
0.000305176
0.0247192
0.0881958
0.23407
0.31189
0.325317
0.286865
0.0631714
-0.173645
-0.178528
-0.0817871
-0.0592041
-0.0698853
-0.0396729
-0.0088501
0.0845337
0.13092
0.0970459
0.0228882
0.0448608
0.0674438
0
-0.0662231
-0.157776
-0.23468
-0.247803
-0.216064
-0.159302
-0.13916
-0.148621
-0.148926
-0.145874
-0.0378418
0.129089
0.270386
0.332947
0.312195
0.284729
0.271301
0.191345
0.172424
0.196838
0.22583
0.16571
-0.071106
-0.349731
-0.366211
-0.256958
-0.157776
-0.00610352
0.20874
0.289001
0.263367
0.197449
0.0784302
-0.0515747
-0.104065
-0.124207
-0.235901
-0.350037
-0.294495
-0.123596
-0.03479
0
0.0360107
0.0653076
0.0857544
0.129089
0.196533
0.259705
0.331726
0.239868
-0.00305176
-0.149231
-0.179443
-0.205994
-0.185242
-0.168152
-0.167847
-0.147705
-0.133972
-0.0592041
-0.0170898
0.012207
0.0924683
0.160217
0.192566
0.127563
0.0457764
0.0366211
0.0576782
0.0921631
0.234985
0.362549
0.393982
0.405579
0.44281
0.351868
0.0378418
-0.244446
-0.434265
-0.498657
-0.404358
-0.288696
-0.285645
-0.293884
-0.271301
-0.238037
-0.114136
-0.0534058
-0.105896
-0.14679
-0.112
-0.0814819
-0.115662
-0.165405
-0.188599
-0.125427
-0.015564
0.0720215
0.137939
0.144958
0.176697
0.212708
0.28656
0.383301
0.315552
0.135193
-0.0158691
-0.050354
-0.0558472
0.0149536
0.0933838
0.130615
0.0979614
-0.017395
-0.0534058
-0.00244141
-0.0134277
-0.00854492
0.0201416
0.0262451
0.0164795
0.00274658
0.0198364
0.0445557
0.0518799
0.0897217
0.117188
0.0680542
-0.0274658
-0.117493
-0.112305
-0.0662231
0.00610352
0.0186157
0.0216675
0.105286
0.263062
0.35614
0.350342
0.240784
-0.0265503
-0.180054
-0.18219
-0.269165
-0.455627
-0.551758
-0.448303
-0.206909
-0.0537109
-0.0909424
-0.231018
-0.274658
-0.211487
-0.0384521
0.0848389
0.0891113
0.122681
0.170593
0.265808
0.387878
0.40863
0.30426
0.153198
0.0518799
0.0488281
0.00183105
-0.0790405
-0.117188
-0.0143433
0.139465
0.160522
-0.0143433
-0.143738
-0.0158691
0.126038
0.168152
0.143433
-0.020752
-0.221558
-0.283813
-0.206604
-0.0894165
-0.0402832
-0.0820923
-0.110474
-0.128479
-0.109253
-0.0747681
-0.0131226
0.0134277
-0.038147
-0.0698853
-0.0741577
-0.0427246
0.0610352
0.197754
0.26886
0.266724
0.16571
-0.0924683
-0.236511
-0.238037
-0.13031
-0.0863647
-0.104065
-0.128479
-0.134583
-0.152588
-0.134888
-0.0970459
-0.0515747
-0.0186157
-0.0253296
-0.0244141
-0.0427246
-0.0311279
-0.00488281
0.0335693
0.109558
0.13916
0.13855
0.150146
0.157166
0.130005
0.141907
0.157776
0.0796509
0.0131226
-0.00427246
0.0692749
0.038147
-0.174866
-0.318604
-0.349426
-0.254517
-0.0735474
0.0961304
0.153809
0.157471
0.13855
0.0515747
-0.0836182
-0.12146
-0.100708
-0.0570679
0.0125122
0.0881958
0.0991821
0.0369263
0.0137329
0.180054
0.414734
0.614929
0.635071
0.537109
0.373535
0.0775146
-0.243225
-0.427551
-0.524597
-0.496826
-0.372009
-0.249329
-0.192566
-0.0732422
0.0631714
0.0994873
0.0473022
0.0152588
-0.0427246
-0.132751
-0.127258
-0.0799561
-0.0921631
-0.151367
-0.220032
-0.210266
-0.160217
-0.0778198
-0.00335693
0.0723267
0.0839233
0.0534058
0.0183105
-0.0564575
-0.120544
-0.0772095
0.022583
0.0738525
0.0991821
0.0863647
0.00762939
-0.090332
-0.129089
-0.108948
-0.0564575
-0.0836182
-0.146179
-0.180359
-0.183716
-0.133057
-0.0775146
0.010376
0.192261
0.336304
0.39917
0.422363
0.394592
0.284119
0.180664
0.131226
0.26123
0.37384
0.317078
0.274963
0.208435
0.093689
-0.0576782
-0.212402
-0.323486
-0.34668
-0.187988
0.0872803
0.261536
0.253296
0.0515747
-0.140686
-0.223694
-0.166931
-0.127869
-0.193787
-0.180969
-0.107117
-0.0808716
-0.0790405
-0.0927734
-0.129089
-0.118103
-0.0674438
-0.0131226
0.083313
0.0897217
-0.0137329
-0.128784
-0.192566
-0.209045
-0.0863647
-0.0469971
-0.0424194
-0.0531006
-0.0177002
0.0167847
0.039978
0.0164795
-0.00335693
0.0143433
0.0961304
0.109253
0.172424
0.263977
0.211792
0.0402832
-0.055542
-0.0283813
0.0497437
0.0448608
0.00396729
-0.0112915
0.00762939
-0.0109863
-0.0680542
-0.0500488
0.0680542
0.185852
0.215759
0.0668335
-0.0308228
-0.062561
-0.0112915
0.0778198
0.118408
0.126038
0.0643921
-0.0732422
-0.264587
-0.426025
-0.490723
-0.368958
-0.180969
-0.0588989
0.0323486
0.0604248
0.078125
0.13916
0.175476
0.176086
0.124207
0.0549316
0.0247192
0.00427246
-0.0302124
-0.0299072
-0.00183105
0.0643921
0.123291
0.114441
0.0863647
0.151978
0.230713
0.266418
0.278625
0.173645
-0.0177002
-0.140686
-0.126343
0.0457764
0.24231
0.256042
0.17334
0.0228882
-0.238647
-0.492554
-0.523071
-0.320129
-0.0662231
0.0476074
0.039978
-0.0650024
-0.0704956
0.0473022
0.127869
0.057373
0.0366211
0.150146
0.185242
0.0927734
-0.0540161
-0.132446
-0.126343
-0.116882
-0.0588989
-0.00671387
0.0546265
0.0668335
0.0805664
0.0912476
0.0857544
0.0915527
0.116272
0.133972
0.132141
0.137939
0.0430298
-0.143433
-0.265198
-0.248718
-0.0985718
0.0222778
0.0979614
0.0991821
0.0265503
0.00366211
-0.0335693
-0.0134277
0.0949097
0.150452
0.141907
0.0732422
0.00274658
0.00183105
0.106506
0.176697
0.167542
0.0836182
0.00946045
-0.0930786
-0.0976562
-0.0949097
-0.113831
-0.0830078
-0.0796509
-0.130615
-0.230408
-0.253906
-0.211487
-0.0149536
0.19928
0.326538
0.321045
0.225525
0.19043
0.230713
0.269165
0.309753
0.290833
0.27832
0.256653
0.160828
0.0259399
-0.103455
-0.104675
-0.0363159
0.00671387
-0.0137329
-0.0366211
-0.197144
-0.406189
-0.408325
-0.332336
-0.25177
-0.109253
0.0186157
0.0863647
0.166626
0.217896
0.194092
0.102844
0.0369263
0.0286865
0.111084
0.13092
0.0134277
-0.154114
-0.320435
-0.485535
-0.361633
-0.0827026
0.100403
0.183411
0.152283
0.105591
0.0671387
-0.00335693
-0.0143433
0.0216675
0.0537109
0.0952148
0.179749
0.189819
0.124817
-0.0198364
-0.254517
-0.378418
-0.308228
-0.160217
0.0283813
0.158997
0.223083
0.264893
0.250549
0.157471
0.057373
0.00274658
0.0387573
0.027771
-0.0656128
-0.09552
-0.0653076
-0.0784302
-0.132751
-0.137024
-0.0714111
-0.00152588
0.00671387
0.0213623
0.00549316
0.0167847
0.154724
0.372925
0.534363
0.571594
0.579834
0.389709
0.0442505
-0.249634
-0.392151
-0.412903
-0.433655
-0.422058
-0.353699
-0.267944
-0.20874
-0.154724
-0.0872803
0.017395
0.0579834
0.0714111
0.078125
0.0448608
0.00518799
-0.00579834
0.0488281
0.116882
0.151978
0.179138
0.177917
0.172729
0.181274
0.211792
0.180664
0.0863647
-0.00274658
-0.0491333
-0.0561523
-0.0592041
0.0668335
0.220947
0.167236
-0.00366211
-0.125732
-0.177002
-0.19043
-0.174866
-0.135803
-0.0720215
0.0241089
0.149536
0.195007
0.135498
-0.0350952
-0.220947
-0.30304
-0.205994
-0.117493
-0.0100708
0.174255
0.31189
0.451965
0.496521
0.412903
0.195007
-0.0628662
-0.188599
-0.246582
-0.276489
-0.227966
-0.164795
-0.0784302
-0.0402832
0.00488281
0.0497437
0.0842285
0.14801
0.249634
0.264587
0.169067
-0.0939941
-0.403748
-0.521545
-0.388489
-0.152283
0.0820923
0.27832
0.426636
0.42511
0.31311
0.115662
-0.138245
-0.233154
-0.164185
-0.0674438
-0.0765991
-0.0186157
0.0106812
0.0509644
0.136108
0.262451
0.250549
0.140076
0.0930786
-0.0231934
-0.176086
-0.267029
-0.282288
-0.264587
-0.170898
-0.0686646
0.0134277
0.200195
0.369568
0.378723
0.276489
0.124207
-0.118103
-0.29541
-0.281067
-0.223083
-0.201416
-0.185547
-0.110168
-0.065918
-0.137329
-0.072937
0.0689697
0.176086
0.216675
0.175171
0.0466919
-0.0689697
-0.0686646
0.00946045
0.107117
0.158997
0.117493
0.00396729
-0.0994873
-0.0839233
0.0253296
0.142212
0.226746
0.232239
0.171509
0.112305
0.0534058
-0.0149536
0.0152588
0.0784302
0.223389
0.440674
0.606995
0.517273
0.242615
-0.098877
-0.299988
-0.252075
-0.140076
-0.108643
-0.127563
-0.186157
-0.188293
-0.214539
-0.195312
-0.0604248
0.159607
0.187683
0.120544
0.106201
0.0643921
-0.0604248
-0.218811
-0.378723
-0.549011
-0.600586
-0.420227
-0.189209
-0.106201
-0.0100708
0.11322
0.244446
0.404053
0.602112
0.646973
0.499573
0.244141
-0.0125122
-0.135498
-0.0390625
-0.00427246
-0.148621
-0.314636
-0.402222
-0.389099
-0.343018
-0.280762
-0.163879
-0.071106
-0.0448608
-0.0341797
-0.0219727
-0.015564
0.0109863
0.0680542
0.168152
0.221863
0.22644
0.0350952
-0.17395
-0.28656
-0.229187
-0.144958
-0.0756836
-0.0463867
-0.0088501
-0.010376
0.00701904
0.0723267
0.137329
0.173035
0.234985
0.213013
0.158386
0.0527954
0.00915527
0.0418091
0.115051
0.125427
-0.0326538
-0.134583
-0.0982666
-0.0646973
0.045166
0.155334
0.250854
0.432129
0.487976
0.407715
0.365601
0.151672
-0.126038
-0.422668
-0.525208
-0.363159
-0.187378
-0.1297
-0.0997925
-0.201416
-0.485229
-0.6427
-0.445251
-0.0476074
0.217285
0.24292
0.161133
0.0973511
0.0674438
0.163879
0.25116
0.213318
0.148315
0
-0.133972
-0.178528
-0.12207
-0.0512695
-0.0244141
-0.00335693
0.0476074
0.0320435
-0.0442505
-0.0424194
-0.0531006
-0.0662231
-0.0726318
-0.062561
-0.0515747
-0.0622559
-0.0418091
-0.0152588
0.145874
0.282898
0.313416
0.202637
0.032959
-0.0793457
-0.0689697
-0.0463867
-0.0521851
-0.071106
-0.0756836
-0.0894165
-0.10437
-0.0564575
0.0253296
0.157166
0.30365
0.402527
0.361633
0.0930786
-0.171814
-0.291138
-0.163574
0.0268555
0.116882
0.239868
0.344849
0.323792
0.28656
0.25116
0.114746
-0.0302124
-0.154114
-0.211792
-0.171509
-0.128479
-0.195923
-0.290222
-0.342102
-0.295715
-0.0979614
0.100098
0.127258
0.0570679
-0.0149536
-0.0836182
-0.0650024
0.0759888
0.201721
0.292664
0.336609
0.270691
0.122681
0.0927734
0.129089
0.0128174
-0.179749
-0.177002
0.000915527
0.138855
0.115356
-0.0228882
-0.140076
-0.306396
-0.375061
-0.295105
-0.185242
-0.0784302
0.00946045
0.115356
0.216064
0.267639
0.235291
0.171814
0.193481
0.159912
0.0616455
-0.0787354
-0.184021
-0.166321
-0.0662231
0.00946045
0.0262451
-0.0430298
-0.24231
-0.45166
-0.442505
-0.280457
-0.14801
-0.0286865
0.10437
0.187378
0.170593
0.0668335
-0.00946045
-0.0393677
-0.0152588
0.0518799
0.128174
0.15686
0.155334
0.236206
0.272522
0.21759
0.141602
0.0418091
-0.109863
-0.1651
-0.154419
-0.0958252
-0.0949097
-0.126038
-0.134583
-0.0463867
0.0537109
0.177002
0.21637
0.135498
0.0112915
-0.108643
-0.317383
-0.317688
-0.133362
0.0216675
0.0509644
0.0805664
0.100708
0.109863
0.0949097
0.0332642
-0.00427246
-0.045166
-0.0540161
-0.071106
-0.027771
-0.0170898
0.00152588
0.0558472
0.151062
0.1828
0.202332
0.163269
0.0921631
-0.0106812
-0.0653076
-0.0424194
0.00976562
0.0637817
0.169373
0.213013
0.202332
0.153198
0.0387573
-0.0515747
-0.00610352
0.065918
0.0512695
-0.0311279
-0.0228882
0.015564
-0.0314331
-0.116272
-0.203552
-0.281982
-0.274353
-0.173035
-0.132751
-0.204773
-0.192566
-0.0704956
0.137634
0.278931
0.353699
0.387573
0.29541
0.163879
-0.0576782
-0.242004
-0.165405
-0.0430298
-0.0335693
-0.0695801
-0.107727
-0.192871
-0.410767
-0.487366
-0.402527
-0.241394
-0.067749
0.133057
0.188293
0.192566
0.186157
0.147705
0.153503
0.195618
0.280762
0.277405
0.137329
0.0534058
0.0778198
0.16449
0.13031
-0.045166
-0.180969
-0.21698
-0.18219
-0.10498
-0.0448608
-0.0482178
-0.0750732
-0.14801
-0.228882
-0.21637
-0.0952148
-0.0308228
-0.0448608
-0.102234
-0.119019
-0.0244141
0.0219727
0.0152588
0.0250244
0.0378418
0.101013
0.19043
0.256653
0.386047
0.37262
0.121765
-0.201721
-0.409851
-0.404968
-0.2005
-0.088501
-0.06073
-0.00946045
-0.00518799
-0.00823975
-0.0619507
-0.11322
-0.122986
-0.148926
-0.100403
-0.00823975
-0.00823975
-0.0186157
-0.0454712
-0.0506592
-0.043335
-0.0549316
-0.0784302
-0.0631714
0.0393677
0.170288
0.265808
0.352783
0.396729
0.346375
0.107117
-0.06073
-0.160522
-0.172729
-0.0802612
0.00396729
0.0726318
0.0418091
-0.122375
-0.309143
-0.256653
-0.0952148
0.0158691
0.115051
0.191956
0.247803
0.238953
0.192566
0.0857544
-0.0756836
-0.184021
-0.222473
-0.239868
-0.22583
-0.191956
-0.0949097
0.0253296
0.146179
0.18219
0.115967
-0.0323486
-0.186462
-0.25177
-0.178528
-0.0915527
-0.0469971
-0.0469971
-0.0790405
-0.0704956
-0.022583
-0.0375366
-0.032959
0.0213623
-0.0186157
-0.0610352
-0.0314331
0.0961304
0.229797
0.288696
0.270081
0.169983
0.0628662
0.114136
0.120544
0.039978
-0.0350952
0.0592041
0.173035
0.23407
0.246277
0.126038
-0.000915527
-0.0177002
-0.032959
-0.0509644
-0.0518799
-0.0338745
0.0241089
0.0137329
-0.0112915
-0.0460815
0.0247192
0.141296
0.2005
0.19165
0.123596
0.0216675
0.0521851
0.0228882
-0.0411987
-0.0692749
-0.0115967
-0.0234985
-0.00793457
-0.0415039
-0.187988
-0.334167
-0.310974
-0.292664
-0.259705
-0.240173
-0.166626
-0.0720215
0.039978
0.132446
0.157776
0.162964
0.146484
0.0210571
-0.129395
-0.155334
-0.0817871
0.0170898
0.237427
0.318298
0.285645
0.21698
0.153198
0.145874
0.122681
0.0131226
-0.0369263
-0.0561523
-0.0915527
-0.13092
-0.0619507
0.169373
0.40741
0.538635
0.434875
0.249023
0.0888062
-0.119629
-0.155334
0.00610352
0.209045
0.28656
0.158386
-0.102539
-0.189819
-0.104675
0.0506592
0.122986
-0.00427246
-0.176392
-0.259094
-0.316772
-0.288696
-0.152283
-0.0668335
-0.0280762
-0.00244141
0.0393677
0.00823975
-0.017395
-0.038147
-0.0674438
-0.03479
-0.0131226
0.0408936
0.10437
0.148926
0.155945
0.188599
0.159912
0.0820923
0.0326538
0.0198364
0.0344849
0.13855
0.13092
-0.0314331
-0.139771
-0.118103
-0.0875854
-0.114746
-0.115051
-0.10437
-0.0817871
-0.0634766
-0.0735474
-0.0961304
-0.0427246
0.0918579
0.24292
0.379028
0.300293
0.128784
0.065918
0.0622559
0.120544
0.229797
0.297241
0.30365
0.192261
-0.0439453
-0.132446
-0.0128174
0.0897217
0.108337
-0.00213623
-0.128479
-0.163269
-0.215149
-0.229187
-0.160828
-0.0454712
0.150452
0.229797
0.252686
0.359802
0.386047
0.292053
0.256042
0.181274
0.0439453
-0.0143433
-0.0369263
-0.120544
-0.220642
-0.267029
-0.261536
-0.227661
-0.202026
-0.0894165
0.00457764
0.0311279
0.00518799
-0.0186157
-0.0454712
0.0204468
0.0476074
0.0738525
0.10376
0.124207
0.196533
0.160522
-0.00701904
-0.230408
-0.404968
-0.429382
-0.344849
-0.213928
-0.154419
-0.110779
0.015564
0.196533
0.207214
0.105591
0.0442505
0.039978
0.00183105
0.00854492
0.072937
0.147705
0.209045
0.265808
0.272522
0.287781
0.311584
0.166931
-0.0808716
-0.225525
-0.202637
-0.0665283
-0.00701904
0.0350952
0.0811768
0.102539
0.0753784
0.16449
0.296326
0.32196
0.25116
0.0869751
-0.0189209
-0.0881958
-0.0814819
-0.0268555
0.00946045
0.0540161
0.0842285
0.0805664
0.0454712
0.0314331
0.0286865
0
-0.0631714
-0.0726318
-0.0921631
-0.124207
-0.125427
-0.197754
-0.287476
-0.296326
-0.205383
-0.0650024
0.0537109
0.0741577
0.0744629
0.0485229
0.0106812
0.020752
-0.0140381
-0.155334
-0.258484
-0.218811
-0.114746
-0.0238037
0.0521851
0.0698853
0.0216675
-0.0509644
-0.0817871
-0.0540161
0.032959
0.0848389
0.0881958
0.101624
0.124512
0.0930786
0.119324
0.145264
0.116272
0.0637817
0.00793457
0.00366211
0.0125122
0.0213623
0.0119019
-0.017395
-0.0387573
-0.0137329
-0.0231934
0.0115967
0.103149
0.140381
0.141602
0.200195
0.193176
0.0234985
-0.166931
-0.195007
-0.123291
-0.0588989
-0.00549316
0.045166
0.145569
0.203552
0.211792
0.15564
0.0183105
-0.108948
-0.1651
-0.0717163
0.0161743
0.116272
0.177002
0.0582886
-0.217896
-0.423584
-0.409851
-0.265198
-0.0799561
0.0628662
0.158386
0.220337
0.163269
0.122986
0.0891113
0.00183105
-0.1651
-0.266113
-0.293579
-0.2005
-0.0540161
0.0393677
0.0460815
0.00610352
-0.123901
-0.263977
-0.26001
-0.188293
-0.101624
-0.0131226
0.0921631
0.163879
0.193176
0.18158
0.126648
-0.00488281
-0.0772095
-0.0845337
-0.0323486
0.0158691
0.000915527
-0.0323486
-0.0161743
0.071106
0.156555
0.185852
0.231934
0.221252
0.125732
0.0363159
0.0195312
0.039978
0.0231934
-0.0323486
-0.0854492
-0.158997
-0.147095
-0.0167847
0.139771
0.325928
0.484619
0.412598
0.0759888
-0.192566
-0.31311
-0.329285
-0.300903
-0.240479
-0.112305
-0.0753784
-0.112
-0.116882
-0.0924683
-0.138245
-0.150452
-0.142517
-0.0762939
0.0570679
0.319519
0.499878
0.519104
0.26947
-0.0747681
-0.325623
-0.299988
-0.0662231
0.0521851
0.00946045
-0.118713
-0.289307
-0.352173
-0.23407
-0.0756836
0.0457764
0.128784
0.112
0.114746
0.0900269
0.093689
0.0534058
-0.0317383
-0.15686
-0.184631
-0.0344849
0.137024
0.26947
0.325928
0.245056
0.0360107
-0.130005
-0.0942993
0.0863647
0.177002
0.194702
0.236816
0.194702
-0.0170898
-0.25116
-0.327454
-0.21637
-0.0646973
0.0335693
0.0146484
-0.118103
-0.218811
-0.245361
-0.275269
-0.228577
-0.138855
-0.0531006
0.0192261
-0.0393677
-0.0421143
0.0372314
-0.0238037
-0.00305176
0.0372314
-0.0387573
-0.17395
-0.228271
-0.198059
-0.130005
-0.0930786
-0.10437
-0.10437
-0.0665283
-0.0161743
0.0576782
0.0680542
0.0189209
0.050354
0.107727
0.178528
0.198669
0.156555
0.0640869
-0.0402832
-0.121765
-0.122375
-0.0686646
0.102844
0.312195
0.458069
0.464783
0.445557
0.378723
0.197449
0.0430298
0.0149536
-0.0357056
-0.0537109
-0.0134277
0.0271606
0.027771
0.0448608
0.0289917
-0.0549316
-0.0900269
-0.119019
-0.230713
-0.30304
-0.258179
-0.0726318
0.282898
0.548401
0.545349
0.456848
0.245361
-0.0405884
-0.168152
-0.252991
-0.397644
-0.55542
-0.657043
-0.573425
-0.369568
-0.196838
-0.0952148
-0.0302124
-0.03479
-0.0668335
-0.126953
-0.101929
-0.0628662
-0.0808716
-0.10376
-0.0668335
0.0927734
0.339661
0.503845
0.52002
0.313416
0.03479
-0.163269
-0.199585
-0.167236
-0.160828
-0.188599
-0.226135
-0.232544
-0.174866
-0.0619507
0.0216675
0.0946045
0.114441
0.115356
0.112305
0.100403
0.0900269
0.0784302
0.090332
0.0582886
-0.0561523
-0.0967407
-0.0778198
-0.0796509
-0.0515747
0.00427246
0.0436401
0.0668335
0.0997925
0.0540161
0.0216675
0.0445557
0.0338745
0.0338745
0.0894165
0.202637
0.275879
0.18219
0.151978
0.118103
0.00701904
-0.141907
-0.170593
-0.0946045
0.0491333
0.250244
0.35553
0.357971
0.31311
0.102234
-0.144348
-0.0567627
0.139465
0.0518799
-0.157471
-0.181885
-0.116272
-0.0552368
-0.00915527
-0.0317383
-0.0662231
-0.0158691
-0.0537109
-0.172424
-0.186157
-0.220032
-0.328674
-0.296631
-0.202637
-0.151978
-0.0335693
0.182495
0.257874
0.22644
0.147095
0.132751
0.206909
0.273743
0.243835
0.171204
0.0411987
-0.126953
-0.205994
-0.126038
-0.0842285
-0.142517
-0.137329
-0.100403
-0.0363159
0.0595093
0.105896
0.0247192
-0.0628662
-0.038147
0.0183105
0.0616455
0.0384521
0.00213623
-0.0112915
0.0216675
0.0836182
0.112305
0.0863647
0.0299072
-0.0131226
-0.00671387
-0.0112915
0.00183105
0.0698853
0.156555
0.137024
0.0653076
-0.0418091
-0.162048
-0.18158
-0.147705
-0.100403
-0.0750732
-0.0222778
0.072937
0.0976562
0.0845337
0.06073
-0.0143433
-0.100403
-0.135803
-0.00610352
0.140381
0.198975
0.228271
0.20752
0.0537109
-0.115662
-0.128784
-0.0421143
0.102539
0.256958
0.198669
0.0167847
-0.124817
-0.275879
-0.319824
-0.227966
-0.0897217
0.0881958
0.240784
0.306396
0.224304
0.173645
0.0946045
-0.0994873
-0.220947
-0.178833
-0.176086
-0.150452
-0.0958252
-0.057373
-0.0765991
-0.104065
-0.0698853
0.0485229
0.172729
0.198364
0.203247
0.175171
0.133057
0.0741577
0.00213623
-0.0576782
-0.107727
-0.105286
-0.0881958
-0.0717163
-0.0814819
-0.163879
-0.23468
-0.228882
-0.160522
-0.0808716
-0.00518799
0.0488281
0.0787354
0.0942993
0.26825
0.534363
0.724487
0.705566
0.496216
0.145569
-0.194702
-0.369263
-0.352783
-0.271301
-0.198364
-0.15686
-0.107422
-0.0671387
-0.0445557
0.015564
0.0402832
0.0247192
-0.0320435
-0.142822
-0.206299
-0.159302
-0.0900269
-0.0756836
-0.0668335
-0.0494385
-0.0674438
-0.0582886
0.0350952
0.0836182
0.0900269
0.0897217
0.0680542
0.017395
-0.00274658
-0.0341797
-0.0817871
-0.171814
-0.133362
-0.032959
0.00396729
0.150757
0.300293
0.397339
0.432739
0.337219
0.151367
-0.0256348
-0.133667
-0.234985
-0.265503
-0.215454
-0.200806
-0.167847
-0.13031
-0.0952148
-0.0479126
-0.0198364
0.110474
0.289001
0.490112
0.662537
0.712585
0.510559
0.117188
-0.310059
-0.496216
-0.378418
-0.172119
-0.0485229
0.0738525
0.194397
0.185852
0.0939941
-0.0808716
-0.198364
-0.123291
0.0134277
0.0338745
-0.0198364
-0.115356
-0.242004
-0.32074
-0.335083
-0.245972
-0.198059
-0.162354
-0.131226
-0.0967407
-0.0698853
-0.0704956
-0.0967407
-0.178833
-0.252075
-0.269165
-0.21637
-0.142517
-0.0558472
0.038147
0.088501
0.0970459
0.148621
0.196533
0.190735
0.13855
0.0900269
0.0518799
0.038147
0.067749
0.0939941
0.159912
0.263367
0.345154
0.314331
0.165405
0.0527954
-0.0784302
-0.153503
-0.145569
-0.0848389
-0.0448608
0
0.0857544
0.180969
0.306702
0.462646
0.517883
0.430603
0.195312
-0.0823975
-0.22644
-0.233459
-0.186768
-0.0808716
-0.00610352
-0.00274658
-0.0524902
-0.175171
-0.159302
-0.0411987
0.0769043
0.135803
0.0326538
-0.132446
-0.258789
-0.328674
-0.336609
-0.298767
-0.199585
-0.0735474
0.0192261
0.0634766
0.112305
0.132446
0.136414
0.0753784
-0.0195312
-0.100098
-0.140686
-0.124512
-0.0445557
0.0769043
0.133972
0.0247192
-0.125122
0.057373
0.317383
0.553284
0.663452
0.473328
0.175781
-0.00274658
-0.0811768
-0.137329
-0.224915
-0.280762
-0.332336
-0.332336
-0.254211
-0.193787
-0.126648
-0.0222778
0.0671387
0.105896
0.124817
0.132446
0.0793457
-0.0088501
-0.0137329
-0.0180054
-0.100708
-0.0643921
0.0460815
0.114441
0.109253
0.0598145
-0.0643921
-0.13092
-0.142212
-0.171814
-0.184021
-0.12207
-0.0332642
0.0201416
0.0152588
0.0189209
0.027771
-0.0485229
-0.111389
-0.0244141
0.085144
0.187683
0.237122
0.193176
0.134583
0.0622559
0.012207
-0.000915527
0.0421143
0.055542
0.0790405
0.0799561
0.00946045
-0.0778198
-0.170288
-0.272217
-0.325012
-0.303955
-0.0869751
0.160522
0.332947
0.447083
0.663147
0.856018
0.762634
0.329895
-0.117188
-0.315247
-0.23407
0.0683594
0.202332
0.0765991
-0.192566
-0.327759
-0.274658
-0.212402
-0.240479
-0.203552
-0.158997
-0.118103
-0.114441
-0.136108
-0.131836
-0.072937
-0.0393677
-0.0238037
0.0900269
0.205688
0.219116
0.0814819
-0.139771
-0.301819
-0.300293
-0.239258
-0.195618
-0.142517
0.0646973
0.29541
0.444641
0.448914
0.26886
-0.00579834
-0.218201
-0.237122
-0.216064
-0.183105
-0.117188
-0.0439453
0.062561
0.120544
0.120544
0.071106
0.0656128
0.110168
0.140381
0.105896
0.00335693
-0.0662231
-0.0796509
-0.06073
-0.0341797
-0.00701904
0.0289917
-0.0222778
-0.115051
-0.213928
-0.22644
-0.100708
0.067749
0.12085
0.0918579
0.0430298
0.0784302
0.147095
0.158386
0.0857544
0.0180054
-0.0198364
0.0131226
0.0738525
0.0979614
0.100708
0.0424194
-0.0231934
-0.0613403
-0.0805664
-0.0631714
-0.0283813
0.00549316
-0.0198364
-0.0524902
-0.00518799
0.0180054
0.0357056
0.172729
0.324097
0.454102
0.456543
0.196228
-0.188904
-0.380249
-0.386963
-0.34668
-0.28595
-0.198669
-0.112
0.179443
0.552063
0.715637
0.598755
0.26001
-0.166321
-0.410767
-0.318298
-0.184021
-0.078125
-0.050354
-0.0863647
-0.127563
-0.1828
-0.189514
-0.212708
-0.180664
-0.0900269
-0.055542
-0.0839233
-0.116577
-0.152283
-0.168762
-0.19043
-0.151672
-0.0772095
0.0125122
0.135193
0.209961
0.195007
0.159607
0.109558
0.122986
0.167847
0.144958
0.078125
-0.0332642
-0.1297
-0.167236
-0.0979614
0.0488281
0.14801
0.19165
0.197144
0.102844
-0.0238037
-0.0363159
0.120239
0.284424
0.312195
0.113831
-0.177612
-0.361633
-0.398254
-0.333862
-0.14679
0.0411987
0.187073
0.273438
0.296631
0.232849
0.192566
0.0372314
-0.230713
-0.359497
-0.281982
-0.0927734
0.0189209
0.0463867
0.0241089
0.0723267
0.0958252
0.13092
0.194702
0.284119
0.308838
0.334778
0.334167
0.317993
0.19043
-0.00823975
-0.19928
-0.279541
-0.322571
-0.311279
-0.22644
-0.093689
-0.0424194
-0.0500488
-0.0460815
-0.0283813
-0.0296021
0.0262451
0.120544
0.143433
0.0436401
-0.062561
-0.103149
-0.159302
-0.173645
-0.00915527
0.017395
-0.093689
-0.221863
-0.233459
-0.169678
-0.147095
-0.14801
-0.139771
-0.182495
-0.200195
-0.214233
-0.163879
-0.0198364
0.103455
0.22644
0.354309
0.368958
0.264587
0.12207
-0.06073
-0.119324
-0.0344849
0.0967407
0.198975
0.240784
0.228577
0.130005
-0.0610352
-0.178528
-0.152893
-0.0869751
-0.0549316
-0.0299072
0.0527954
0.133972
0.136414
0.0973511
0.00488281
-0.0875854
-0.149231
-0.135193
-0.0579834
0.0161743
0.0411987
0.000915527
-0.00457764
0.0418091
0.172729
0.271606
0.330505
0.306702
0.160828
-0.0592041
-0.313721
-0.374146
-0.290527
-0.207825
-0.0817871
-0.0512695
-0.0927734
-0.130005
-0.107727
-0.0140381
0.090332
0.102539
0.0839233
0.0384521
-0.0244141
-0.0311279
0.0735474
0.0982666
0.0723267
0.0918579
0.0628662
0.0247192
0.0238037
0.0668335
0.159912
0.157166
0.191345
0.170898
0.0686646
-0.0521851
-0.0979614
-0.126343
-0.138855
-0.0796509
0.000915527
0.0366211
-0.00427246
0.0268555
0.0247192
0.000305176
-0.0341797
-0.0231934
0.0192261
0.0732422
0.159302
0.252991
0.236206
0.0857544
-0.012207
-0.128479
-0.188904
-0.0839233
0.00732422
0.0314331
0.124207
0.1828
0.205994
0.226746
0.0695801
-0.168762
-0.236511
-0.262146
-0.252075
-0.133362
-0.0744629
-0.0817871
0.00518799
0.169067
0.247498
0.205383
0.039978
-0.198364
-0.379333
-0.360107
-0.215454
-0.112915
-0.0405884
0.00457764
-0.0183105
-0.0527954
-0.0686646
-0.0506592
0
0.0457764
0.0506592
0.0686646
0.0238037
0.0613403
0.162964
0.239563
0.252075
0.190735
0.00274658
-0.155029
-0.157776
-0.133972
-0.0930786
-0.0289917
0.0979614
0.256653
0.310364
0.218201
0.0280762
-0.0979614
-0.126038
-0.114136
-0.0436401
0.0314331
0.0189209
0.0112915
0.0274658
0.0872803
0.178528
0.169373
0.0912476
0.00213623
-0.104065
-0.0888062
-0.00946045
0.0619507
0.0384521
0.0546265
0.0457764
0.045166
0.0408936
0.00457764
0.0198364
0.0613403
0.102539
0.122375
0.0595093
-0.110168
-0.247192
-0.216675
-0.116882
-0.0686646
-0.0860596
-0.174255
-0.199585
-0.133667
0.00762939
0.158081
0.183411
0.0845337
0.0354004
0.0637817
0.10498
0.0933838
0.027771
-0.0967407
-0.190735
-0.207825
-0.180664
-0.1297
-0.093689
-0.0909424
-0.0549316
0.0195312
0.141296
0.26001
0.281372
0.177917
0.00946045
-0.179749
-0.26062
-0.19165
-0.0952148
-0.0421143
-0.0137329
0.00396729
0.140381
0.272522
0.335693
0.299072
0.168152
-0.0149536
-0.0765991
-0.0177002
0.0827026
0.098877
0.0915527
0.140686
0.163879
0.212708
0.134583
-0.0747681
-0.197449
-0.0830078
0.118408
0.242004
0.305786
0.254517
0.172119
0.0613403
-0.162048
-0.303955
-0.285339
-0.276184
-0.271606
-0.213928
-0.135803
-0.0946045
0.0274658
0.133667
0.0900269
-0.0262451
0.0335693
0.0375366
-0.0973511
-0.218506
-0.1828
-0.0894165
0.0759888
0.330505
0.544739
0.644836
0.493774
0.24231
-0.00915527
-0.185852
-0.27771
-0.203552
-0.169983
-0.126038
-0.0613403
0.000305176
0.0491333
0.050354
-0.0146484
-0.144043
-0.20813
-0.205078
-0.162659
-0.118713
-0.114746
-0.124817
-0.0979614
-0.0213623
0.0619507
0.180969
0.275269
0.320129
0.278931
0.2005
0.123596
0.0125122
-0.136108
-0.231628
-0.227356
-0.207214
-0.117798
-0.0152588
0.0497437
0.0473022
0.0186157
-0.00305176
0.00915527
0.0643921
0.12207
0.179138
0.207214
0.0750732
-0.0741577
-0.183716
-0.279541
-0.271912
-0.212402
-0.161438
-0.0927734
0.0686646
0.210571
0.331726
0.311584
0.160828
0.0192261
-0.085144
-0.150757
-0.0335693
0.207214
0.264282
0.131836
0.0222778
-0.0198364
-0.0897217
-0.102234
-0.0634766
-0.0521851
-0.0698853
-0.0689697
-0.0234985
0.0668335
0.0784302
0.0558472
0.0970459
0.072937
0.0442505
0.0875854
0.0894165
0.0244141
0.0219727
0.0439453
0.0192261
0.0201416
0.108948
0.158386
0.188904
0.200806
0.140381
0.107422
0.0332642
-0.0662231
-0.115051
0.0473022
0.175476
0.198364
0.140381
-0.0125122
-0.273132
-0.452881
-0.447998
-0.346985
-0.292969
-0.215149
-0.0967407
-0.0701904
-0.107422
-0.109863
-0.0448608
0.0289917
0.072937
0.0402832
-0.03479
-0.10437
-0.136719
-0.108337
-0.00335693
0.152588
0.263062
0.305481
0.239868
0.090332
-0.104675
-0.246277
-0.266418
-0.185852
-0.050354
0.0134277
0.0457764
0.116272
0.127869
0.0680542
0.0198364
-0.0268555
-0.0372314
-0.072937
-0.0280762
0.0265503
0.106812
0.128784
0.191956
0.36499
0.476074
0.378113
0.1651
-0.0552368
-0.245972
-0.350647
-0.314026
-0.211487
-0.170288
-0.153503
-0.0582886
-0.0457764
-0.0704956
-0.0634766
-0.0164795
0.057373
0.168152
0.256653
0.276794
0.243835
0.189514
0.135803
0.057373
-0.0384521
-0.0601196
-0.0354004
-0.0546265
-0.12085
-0.18158
-0.20752
-0.132141
-0.0354004
-0.0692749
-0.152283
-0.180359
-0.192871
-0.158997
-0.0595093
0.06073
0.172424
0.280457
0.218506
0.00946045
-0.154724
-0.121765
-0.00762939
0.043335
0.0698853
-0.00274658
-0.0933838
0.000305176
0.116882
0.152893
0.0921631
0.10437
0.133667
0.115967
0.0387573
-0.0335693
0.045166
0.300598
0.569153
0.59021
0.371704
0.124207
0.0616455
0.0408936
-0.0961304
-0.185852
-0.279236
-0.34668
-0.293274
-0.243225
-0.245056
-0.282288
-0.248413
-0.212097
-0.179138
-0.137024
-0.0747681
0.0418091
0.127869
0.193176
0.236816
0.259399
0.286865
0.27771
0.118408
-0.14679
-0.327759
-0.421448
-0.439758
-0.346375
-0.219727
-0.0576782
0.0869751
0.0946045
0.110168
0.0759888
-0.00701904
-0.0323486
0.0366211
0.0723267
0.124512
0.20813
0.161133
0.0119019
-0.13092
-0.194092
-0.231628
-0.219727
-0.19165
-0.170593
-0.110474
0.00488281
0.125427
0.245667
0.345764
0.450439
0.524292
0.592957
0.469666
0.151367
-0.0830078
-0.20813
-0.252075
-0.169373
-0.0820923
-0.0579834
-0.113525
-0.133057
-0.0970459
-0.0604248
-0.0540161
-0.0567627
-0.0622559
-0.0686646
-0.0552368
-0.0305176
0.00854492
-0.0106812
0.0552368
0.177612
0.282898
0.264893
0.1828
0.0485229
-0.0366211
-0.118408
-0.213623
-0.245972
-0.236511
-0.178833
0.000610352
0.19989
0.266418
0.18158
0.0601196
-0.0509644
-0.093689
-0.0592041
0.00335693
0.121765
0.192566
0.0827026
-0.0524902
-0.155029
-0.261536
-0.266418
-0.1474
-0.015564
0.0411987
-0.00335693
-0.00579834
0.0396729
0.0192261
0.0390625
0.0888062
0.124817
0.0900269
0.00152588
-0.0909424
-0.144348
-0.118408
-0.0805664
-0.0634766
-0.0363159
-0.0192261
0.0561523
0.111084
0.134888
0.184937
0.211792
0.2005
0.127563
0.0222778
-0.00213623
0.050354
0.131226
0.0970459
0.00396729
-0.0704956
-0.114746
-0.159912
-0.176392
-0.1651
-0.101929
-0.0863647
-0.102234
-0.0332642
0.0723267
0.0854492
0.00457764
-0.115356
-0.168457
-0.198059
-0.17395
-0.0631714
0.0756836
0.175781
0.159302
0.0930786
-0.0265503
-0.0952148
-0.0967407
-0.0854492
-0.0933838
-0.0524902
0.0216675
0.0485229
0.0302124
0.0375366
0.263977
0.467224
0.63446
0.666199
0.395203
-0.0238037
-0.402527
-0.602417
-0.617981
-0.52063
-0.271912
-0.0338745
0.0860596
0.112915
0.0924683
0.0152588
-0.128784
-0.191345
-0.164795
-0.0924683
0.0106812
0.0680542
0.0784302
0.0604248
0.0360107
0.0976562
0.240173
0.397339
0.534973
0.461121
0.216064
0.0546265
0.0131226
-0.0323486
-0.137329
-0.167847
-0.185852
-0.284424
-0.284119
-0.279846
-0.168152
-0.043335
0.0314331
0.0396729
0.0595093
0.083313
0.0939941
0.0854492
0.0408936
-0.027771
-0.0646973
-0.0891113
-0.112
-0.122681
-0.12085
-0.0796509
-0.0100708
-0.0170898
-0.0387573
-0.0247192
0.0350952
0.103455
0.122986
0.133667
0.145264
0.148315
0.178833
0.194702
0.152283
0.139465
0.137939
0.124207
0.13855
0.174866
0.132446
-0.00427246
-0.102539
-0.13092
-0.0628662
0.0366211
0.0769043
0.0930786
0.116882
0.16449
0.168152
0.170593
0.337219
0.60791
0.778809
0.690002
0.439758
0.0863647
-0.121155
-0.209961
-0.141602
-0.0930786
-0.238342
-0.457153
-0.574646
-0.53009
-0.420227
-0.322266
-0.35553
-0.436096
-0.386963
-0.215149
-0.0357056
0.0646973
0.0598145
0.0485229
0.0671387
0.0222778
-0.0827026
-0.150757
-0.198059
-0.247498
-0.167542
-0.0701904
-0.0109863
0.0598145
0.127563
0.186768
0.195618
0.111389
-0.0198364
-0.110474
-0.0881958
-0.0650024
-0.00549316
0.122986
0.19989
0.190125
0.127869
0.105896
0.18158
0.250854
0.299683
0.236511
0.0146484
-0.154419
-0.122681
0.00152588
0.0796509
0.113525
0.0726318
-0.0402832
-0.18158
-0.231018
-0.235901
-0.230713
-0.208435
-0.134277
-0.0762939
-0.00793457
0.0595093
0.0592041
0.06073
0.0289917
0.0283813
0.0106812
0.0332642
0.0595093
0.0680542
0.0521851
0.0454712
0.072937
0.205994
0.26886
0.173035
0.0268555
-0.093689
-0.152588
-0.177917
-0.196838
-0.145264
-0.0585938
-0.0259399
-0.0473022
-0.105896
-0.137024
-0.102234
-0.0616455
-0.00427246
0.0662231
0.121155
0.202332
0.245972
0.244446
0.160828
0.0906372
0.0976562
0.0274658
-0.085144
-0.142212
-0.0939941
-0.0479126
0.00396729
-0.0131226
-0.159607
-0.247498
-0.220642
-0.137634
-0.0839233
-0.0860596
-0.0848389
-0.0686646
-0.0411987
0.00305176
0.00671387
-0.0460815
-0.0753784
-0.012207
0.0283813
0.0662231
0.160828
0.190735
0.0875854
-0.0558472
-0.13031
-0.107422
-0.0167847
0.0820923
0.1828
0.247498
0.274353
0.216675
-0.0161743
-0.312805
-0.473328
-0.403748
-0.0665283
0.234375
0.284729
0.22583
0.189819
0.198059
0.168762
0.137939
0.0872803
-0.020752
-0.0616455
-0.0588989
-0.0674438
-0.0100708
0.100098
0.151672
0.187378
0.0741577
-0.0106812
-0.0335693
-0.00671387
-0.055542
-0.186768
-0.270996
-0.30426
-0.359192
-0.3302
-0.19165
-0.0985718
0.0494385
0.244141
0.354004
0.336609
0.211487
0.0109863
-0.0979614
-0.111389
-0.0961304
-0.0747681
-0.0869751
-0.109558
-0.159607
-0.174255
-0.154419
-0.111389
-0.0375366
0.0482178
0.126648
0.163879
0.13855
0.0842285
0.0143433
-0.0366211
-0.0354004
0.0149536
0.0631714
0.117493
0.144653
0.147705
0.150146
0.255127
0.338745
0.31311
0.21637
-0.0460815
-0.330505
-0.42572
-0.402222
-0.299377
-0.173645
-0.0164795
0.0909424
0.062561
-0.0747681
-0.119934
-0.0866699
-0.0637817
-0.0491333
-0.0524902
-0.0692749
-0.0088501
0.0418091
0.039978
0.0857544
0.213013
0.395203
0.582886
0.720215
0.61676
0.188904
-0.198975
-0.335388
-0.385437
-0.384827
-0.28717
-0.166321
-0.101624
-0.0830078
-0.0598145
-0.09552
-0.0946045
-0.0222778
0.0341797
0.0894165
0.098877
0.085144
0.126648
0.213318
0.277405
0.180054
0.0228882
-0.109558
-0.15564
-0.105896
0.0778198
0.190735
0.152893
0.0460815
-0.0952148
-0.267639
-0.363464
-0.323181
-0.228577
-0.132141
-0.11261
-0.198669
-0.280151
-0.270996
-0.205688
-0.0411987
0.2771
0.514526
0.565796
0.4599
0.130615
-0.102539
-0.0540161
0.00488281
0.0170898
0.0119019
0.170288
0.352783
0.39978
0.318604
0.151672
-0.0552368
-0.179138
-0.170898
-0.124512
-0.0747681
0.0112915
0.0543213
0.0689697
-0.00274658
-0.114441
-0.192566
-0.193787
-0.139771
-0.0402832
0.0567627
0.108032
0.0369263
-0.0994873
-0.131226
-0.102844
-0.0308228
0.0244141
0.043335
0.00640869
-0.0119019
-0.0253296
-0.0436401
-0.0457764
-0.0436401
0.0265503
0.121155
0.200195
0.177002
0.0656128
-0.0521851
-0.125122
-0.128174
-0.0402832
0.0369263
0.0778198
0.119629
0.0973511
0.143433
0.202332
0.0811768
-0.184326
-0.303955
-0.258179
-0.126343
0.0854492
0.270996
0.516052
0.808411
0.953369
0.92041
0.574646
-0.118408
-0.762024
-0.884705
-0.718994
-0.484619
-0.204773
-0.0238037
0.0787354
0.0454712
-0.0286865
-0.0338745
-0.104065
-0.166321
-0.192871
-0.192566
-0.169983
-0.0909424
0.0164795
0.0686646
0.0970459
0.0830078
0.0531006
0.00183105
-0.0317383
-0.020752
0.0143433
-0.0219727
-0.0595093
-0.0314331
0.0100708
0.00366211
0.0323486
0.0973511
0.127258
0.11322
0.153809
0.184021
0.261536
0.372314
0.292664
0.206909
0.0720215
-0.116577
-0.239868
-0.281677
-0.264587
-0.21759
-0.195312
-0.215759
-0.184021
-0.0311279
0.127258
0.283813
0.328369
0.21759
0.0854492
0.0408936
0.0683594
0.130005
0.177612
0.154114
0.0411987
-0.055542
0.00671387
0.093689
0.0701904
0.0109863
-0.0552368
-0.125732
-0.184021
-0.172729
-0.110168
0.00915527
0.0244141
-0.0692749
-0.154419
-0.284424
-0.343018
-0.29541
-0.195312
-0.0421143
0.0778198
0.0802612
0.0820923
0.142212
0.200806
0.204163
0.169983
0.0997925
-0.0357056
-0.194702
-0.228271
-0.180054
-0.0515747
0.0244141
0.101318
0.135193
0.0634766
-0.0479126
-0.0900269
-0.0543213
-0.00366211
0.0393677
0.0552368
0.0643921
0.0915527
0.0933838
0.158691
0.345459
0.603333
0.804443
0.779419
0.400085
-0.0631714
-0.449524
-0.57312
-0.472412
-0.369263
-0.305481
-0.237427
-0.220947
-0.22583
-0.215149
-0.152893
-0.0427246
0.0509644
0.0814819
0.0253296
0.020752
0.0338745
0.0149536
-0.00396729
-0.0448608
-0.0918579
-0.0933838
-0.0793457
-0.0668335
-0.0619507
-0.107727
-0.141602
-0.121765
-0.0698853
-0.0152588
0.0765991
0.193481
0.300903
0.447083
0.527344
0.4422
0.266724
0.122986
-0.0552368
-0.212402
-0.357666
-0.319824
-0.252075
-0.259094
-0.283508
-0.226746
0.00640869
0.210571
0.237122
0.161438
0.0280762
-0.0308228
0.0100708
0.0894165
0.191345
0.338745
0.4953
0.628662
0.531311
0.3125
0.0582886
-0.163879
-0.132446
-0.00854492
0.0152588
-0.0262451
-0.123291
-0.169983
-0.139465
-0.12207
-0.144348
-0.184631
-0.193787
-0.261536
-0.313416
-0.286255
-0.231934
-0.15686
-0.098877
-0.0637817
-0.118408
-0.16449
-0.133057
-0.0640869
0.00640869
0.0448608
0.00610352
-0.0137329
0.0149536
0.00488281
0.0149536
0.0753784
0.130615
0.13916
0.135498
0.189209
0.232239
0.135193
0.0515747
0.062561
0.0592041
0.027771
-0.00274658
-0.141296
-0.191956
-0.0964355
-0.0234985
-0.0198364
-0.00854492
-0.0454712
-0.0689697
-0.0900269
-0.134888
-0.174866
-0.172729
-0.113831
-0.0393677
0.0631714
0.191345
0.311584
0.340881
0.294189
0.0909424
-0.0616455
-0.078125
-0.0140381
0.189514
0.358582
0.434265
0.37323
0.140381
-0.148621
-0.183411
-0.153809
-0.17395
-0.193787
-0.201111
-0.180664
-0.17334
-0.180664
-0.155945
-0.133362
-0.13092
-0.108948
-0.0875854
-0.0689697
0.0088501
0.0808716
0.0860596
0.113831
0.196228
0.33905
0.389709
0.384827
0.418091
0.381775
0.175476
-0.0848389
-0.249023
-0.294495
-0.19043
-0.101318
-0.050354
-0.022583
-0.0515747
-0.159912
-0.234375
-0.185242
-0.0375366
0.120239
0.14679
0.0720215
0.0540161
0.0939941
0.108337
0.169983
0.274658
0.123596
-0.107117
-0.212097
-0.258789
-0.259705
-0.170898
-0.0775146
-0.00396729
0.0558472
0.154114
0.24353
0.207825
0.117798
0.0814819
-0.00366211
-0.00335693
-0.0628662
-0.298157
-0.438232
-0.346375
-0.178833
-0.0463867
0.118408
0.241089
0.241699
0.164795
0.0961304
0.0201416
-0.0869751
-0.108032
0.0198364
0.0964355
0.163269
0.324097
0.391235
0.239563
0.0619507
-0.156555
-0.39093
-0.455933
-0.355835
-0.204468
0.00579834
0.126953
0.152588
0.114441
0.00366211
-0.107117
-0.142517
-0.15564
-0.134888
-0.108948
-0.0805664
-0.0765991
-0.0628662
-0.00579834
0.0961304
0.155029
0.142517
0.10437
0.0289917
-0.0820923
-0.078125
-0.0595093
0.0259399
0.250244
0.561523
0.762939
0.724182
0.406189
0.0744629
-0.200195
-0.342102
-0.319519
-0.275269
-0.296021
-0.279236
-0.240784
-0.205383
-0.160217
-0.0982666
-0.0256348
-0.045166
-0.0796509
-0.127869
-0.100708
-0.0396729
-0.017395
-0.0198364
-0.0149536
0
0.039978
0.0616455
0.155945
0.281677
0.368347
0.359192
0.275574
0.0588989
-0.267639
-0.426331
-0.396118
-0.270691
-0.110474
0.0332642
0.116882
0.0787354
0.00244141
-0.0375366
-0.0344849
-0.0543213
-0.142517
-0.180664
-0.0720215
0.0164795
-0.00610352
-0.0372314
-0.0369263
-0.00701904
0.0964355
0.219421
0.403137
0.547791
0.6604
0.777283
0.796509
0.70282
0.440979
-0.101318
-0.549622
-0.692749
-0.555115
-0.412903
-0.289612
-0.230408
-0.19043
-0.0515747
0.0857544
0.193176
0.290833
0.213318
-0.0210571
-0.270081
-0.46051
-0.397644
-0.215454
-0.143127
-0.140686
-0.102844
-0.00396729
0.0970459
0.0772095
-0.0177002
-0.105896
-0.153198
-0.160828
-0.135803
-0.0805664
0.0469971
0.109253
0.161133
0.144958
0.0973511
0.0820923
0.0790405
0.0924683
0.0732422
0.0192261
-0.0222778
-0.0558472
-0.0915527
-0.142822
-0.129395
-0.14679
-0.119629
0.0146484
0.105591
0.0720215
0.0244141
0.0180054
-0.0296021
-0.0875854
-0.0598145
0.105286
0.245667
0.398865
0.522766
0.438232
0.28595
0.0857544
-0.169067
-0.296936
-0.223694
-0.00366211
0.153198
0.223694
0.295715
0.239563
0.0906372
0.100098
0.027771
-0.176086
-0.230408
-0.18158
-0.118408
-0.0100708
0.0466919
0.0656128
0.0424194
-0.0222778
-0.0088501
0.111084
0.132141
-0.0234985
-0.18158
-0.302429
-0.389404
-0.353699
-0.224915
-0.0454712
0.088501
0.109863
0.0704956
-0.0216675
-0.0717163
-0.0674438
-0.0137329
0.112915
0.201416
0.276184
0.275574
0.171509
-0.0274658
-0.211792
-0.281067
-0.237122
-0.180969
-0.0900269
0.0228882
0.0741577
0.0595093
0.0527954
0.039978
0.0778198
0.203552
0.325928
0.295105
0.187073
0.00640869
-0.215149
-0.328674
-0.295105
-0.22644
-0.154114
-0.0158691
0.16571
0.361023
0.53009
0.609741
0.458679
0.13916
-0.106201
-0.120544
-0.0735474
-0.0881958
-0.222473
-0.406799
-0.480347
-0.372314
-0.248413
-0.164185
-0.161133
-0.140686
-0.0613403
-0.0384521
-0.0396729
-0.0186157
0.0350952
0.0811768
0.0939941
0.128784
0.166931
0.232849
0.167542
0.0717163
0.132751
0.180969
0.142517
0.0476074
-0.0558472
-0.0820923
-0.0650024
-0.0723267
-0.0619507
-0.0939941
-0.151672
-0.159912
-0.0939941
-0.0354004
0
0.144958
0.306396
0.36499
0.26886
0.0857544
-0.232544
-0.312195
-0.178528
-0.0146484
0.0476074
-0.00762939
-0.0717163
-0.133667
-0.164795
-0.163269
-0.10498
-0.0411987
0.0808716
0.256958
0.409241
0.4245
0.345764
0.196838
0.00946045
-0.0509644
0.0308228
0.0741577
0.0241089
-0.0909424
-0.19989
-0.295715
-0.310059
-0.269775
-0.189209
-0.0643921
0.0817871
0.16571
0.143127
0.0634766
-0.0396729
-0.0274658
-0.0299072
-0.0363159
-0.106506
-0.0708008
0.00518799
0
-0.015564
0.00671387
-0.0210571
0.0320435
0.0808716
0.0741577
0.0219727
0.00366211
0.0921631
0.210266
0.23407
0.204773
0.0311279
-0.145874
-0.211182
-0.175171
-0.127258
-0.13031
-0.126648
-0.125732
-0.09552
0.0210571
0.209351
0.313416
0.326843
0.311584
0.229187
0.0918579
-0.0390625
-0.153198
-0.271606
-0.200195
0.050354
0.241394
0.244751
0.0390625
-0.253296
-0.397644
-0.317688
-0.206604
-0.083313
0.0491333
0.177002
0.244751
0.141907
-0.0750732
-0.252991
-0.325317
-0.296021
-0.201721
-0.0964355
0.0164795
0.105896
0.13855
0.150146
0.137939
0.183411
0.247803
0.30426
0.17395
-0.0268555
-0.137024
-0.0384521
0.175781
0.346985
0.314331
0.137634
0.0332642
0.0216675
0.00579834
-0.0549316
-0.1297
-0.225525
-0.243225
-0.220642
-0.1651
-0.10376
0.0201416
0.105896
0.168762
0.172729
0.158081
0.170898
0.106506
-0.0491333
-0.158386
-0.155945
-0.0158691
0.16449
0.230408
0.0778198
-0.133362
-0.191956
-0.174255
-0.12085
-0.0628662
-0.0180054
0.0152588
0.0192261
-0.0369263
-0.163269
-0.225525
-0.19989
-0.110168
0.0222778
0.100098
0.0863647
0.0460815
0.00701904
-0.0125122
-0.0253296
-0.0698853
-0.105286
-0.101318
-0.062561
-0.0900269
-0.124207
-0.128479
-0.0674438
-0.0180054
0.0335693
0.0509644
0.107727
0.194092
0.219727
0.222778
0.180054
0.146179
0.296326
0.485229
0.55542
0.525208
0.301208
0.032959
0.00183105
0.0595093
0.0512695
0.00244141
-0.0857544
-0.305176
-0.509949
-0.526428
-0.408936
-0.301819
-0.190125
-0.0405884
0.129395
0.3302
0.463562
0.446777
0.292664
0.0469971
-0.20874
-0.274963
-0.184631
-0.126038
-0.197144
-0.198975
-0.143433
-0.0668335
0.00946045
0.0439453
-0.0335693
-0.10376
-0.115967
-0.119019
-0.0326538
0.0637817
0.183105
0.242615
0.242615
0.0909424
-0.146179
-0.293274
-0.290833
-0.143127
0.10498
0.350952
0.374146
0.238953
0.0341797
-0.162659
-0.175171
-0.0888062
-0.0491333
-0.0360107
-0.0152588
-0.0247192
-0.0848389
0
0.0579834
0.00640869
-0.0289917
-0.0646973
-0.0796509
-0.00396729
0.0509644
0.022583
-0.0158691
-0.0430298
-0.0534058
-0.0512695
0.0314331
0.178223
0.273743
0.361023
0.510559
0.594177
0.517273
0.250244
-0.120544
-0.488281
-0.597839
-0.426331
-0.1828
-0.010376
0.0790405
0.0735474
-0.0723267
-0.181885
-0.129089
-0.0219727
0.0946045
0.167847
0.158997
0.0460815
-0.0817871
-0.13916
-0.0720215
0.0106812
0.0146484
0.0128174
0.0985718
0.176697
0.286865
0.367126
0.261536
0.10376
0.0436401
-0.156555
-0.227051
-0.108948
-0.107727
-0.188599
-0.220032
-0.207214
-0.1297
0.0152588
0.10437
0.143433
0.136414
0.0918579
0.0488281
-0.0244141
-0.134888
-0.217285
-0.224915
-0.13092
0.0253296
0.135803
0.159607
0.083313
0.00579834
-0.0476074
-0.0653076
0.0119019
0.0964355
0.0790405
-0.020752
-0.133057
-0.129395
-0.106201
-0.0537109
-0.00305176
-0.057373
-0.112305
-0.111694
-0.137939
-0.12085
-0.0421143
-0.0424194
0.0012207
0.110779
0.146179
0.117493
0.0442505
0.0192261
0.00701904
0.057373
-0.00427246
-0.150757
-0.184326
0.0393677
0.302124
0.491028
0.602722
0.446777
0.128479
-0.111389
-0.185242
-0.112
-0.119629
-0.17334
-0.202942
-0.176392
0
0.197144
0.333557
0.355835
0.260925
0.0970459
0.118713
0.250549
0.202942
0.0106812
-0.106812
-0.178833
-0.201111
-0.105591
0.0100708
0.0164795
-0.0292969
-0.0683594
-0.141602
-0.173035
-0.176392
-0.157776
-0.131226
-0.0985718
-0.067749
-0.0631714
-0.102539
-0.176086
-0.195312
-0.159912
-0.0741577
-0.00457764
0.0390625
0.0595093
0.101929
0.0704956
0.0463867
0.0238037
0.0158691
0.0088501
0.00823975
0.00518799
-0.017395
-0.0308228
0.0170898
0.0949097
0.107117
0.0411987
0
-0.0866699
-0.00732422
0.0762939
0.141907
0.173035
0.155029
0.113831
0.0817871
0.0869751
0.0613403
0.0735474
0.104065
0.126648
0.184631
0.172119
0.0820923
-0.0201416
-0.135803
-0.167542
-0.0784302
0.0363159
0.0863647
0.0183105
-0.107117
-0.119324
-0.0515747
0.071106
0.249329
0.345764
0.338135
0.166626
-0.0759888
-0.224915
-0.275269
-0.346069
-0.239868
-0.0088501
0.13916
0.195312
0.271606
0.413208
0.448608
0.397034
0.320129
0.0311279
-0.26825
-0.379944
-0.314636
-0.230713
-0.114746
-0.0564575
-0.106506
-0.194397
-0.245056
-0.274658
-0.234985
-0.0546265
0.181885
0.220032
0.177002
0.0631714
-0.0976562
-0.194092
-0.179138
-0.0997925
-0.00823975
0.0424194
0.0820923
0.107117
0.108337
0.0796509
0.00335693
0.0247192
0.0415039
0.0759888
0.101624
0.0244141
-0.150452
-0.273743
-0.254517
-0.144653
-0.032959
0.0299072
0.10437
0.136108
0.121765
0.121765
0.0732422
-0.0216675
-0.13031
-0.193481
-0.196228
-0.0827026
0.0952148
0.278015
0.375671
0.325623
0.201721
0.0820923
0.012207
0.0360107
0.112305
0.167847
0.197754
0.267029
0.16449
0.0512695
-0.0744629
-0.20752
-0.258789
-0.248108
-0.189209
-0.0689697
0.000305176
-0.0238037
0.0119019
0.142517
0.19928
0.102844
-0.20752
-0.32135
-0.184937
-0.0421143
-0.0585938
-0.142212
-0.202026
-0.23468
-0.212402
-0.115967
0.00244141
0.0140381
-0.020752
0.0323486
0.110779
0.175476
0.171509
0.0814819
0.0546265
0.0512695
0.0619507
0.0192261
-0.045166
-0.0973511
-0.0802612
0.0317383
0.184326
0.218811
0.121765
-0.0463867
-0.121155
-0.172424
-0.196228
-0.152893
-0.0692749
-0.0286865
-0.0289917
0.0537109
0.148315
0.0994873
-0.0436401
-0.10376
-0.0302124
0.0167847
0.00946045
-0.020752
-0.00366211
-0.0341797
-0.0680542
-0.0701904
-0.0140381
0.0598145
0.0991821
0.0866699
0.0326538
-0.00457764
-0.143127
-0.339661
-0.39978
-0.290833
-0.11322
0.0915527
0.19928
0.203247
0.104675
0.0753784
0.0817871
0.0857544
0.0735474
0.0784302
0.071106
0.00823975
0.0271606
0.148315
0.299683
0.360107
0.339355
0.190125
0.122375
0.153503
0.0942993
-0.0375366
-0.0527954
0.0671387
0.213928
0.212097
0.181274
0.180664
0.00854492
-0.3125
-0.500793
-0.475769
-0.409241
-0.328369
-0.272522
-0.226746
-0.188293
-0.118713
-0.0189209
0.0643921
0.11261
-0.00579834
-0.187988
-0.221863
-0.148315
-0.098877
-0.045166
0.0750732
0.179138
0.224304
0.215454
0.200806
0.134888
0.0167847
-0.0369263
-0.0653076
-0.0775146
-0.0473022
-0.0454712
-0.0283813
-0.0140381
0.0201416
-0.0100708
-0.0491333
-0.0759888
-0.0964355
-0.126648
-0.108032
0.0341797
0.212402
0.317078
0.397034
0.431824
0.4599
0.496521
0.562134
0.534058
0.335999
0.103455
-0.065918
-0.353088
-0.55481
-0.46814
-0.279541
-0.172424
-0.206909
-0.345459
-0.435181
-0.392151
-0.259399
-0.177002
-0.106506
-0.0592041
0.0143433
0.0424194
0.13092
0.172729
0.15686
0.160522
0.0506592
-0.11261
-0.145569
-0.0131226
0.147705
0.235291
0.260315
0.193176
0.12207
0.0814819
0.0540161
0.0460815
0.120239
0.0408936
-0.124207
-0.200195
-0.146179
-0.0244141
-0.00762939
-0.00946045
0.0616455
0.0952148
0.0234985
-0.0112915
0.0195312
0.0735474
0.0466919
0.00823975
-0.00610352
-0.00610352
0.0415039
0.194092
0.349121
0.406494
0.412292
0.343018
0.0701904
-0.254517
-0.426941
-0.374451
-0.311584
-0.234985
-0.156555
-0.127869
-0.142517
-0.154419
-0.133972
-0.108032
-0.0805664
-0.0247192
0.0149536
-0.00976562
-0.0769043
-0.107727
-0.10498
-0.0930786
-0.0656128
0.0106812
0.117188
0.174255
0.214539
0.235596
0.241699
0.221558
0.172729
0.0485229
0.0180054
0.0939941
0.150146
0.105286
-0.0598145
-0.071106
-0.0549316
-0.0631714
0.0360107
0.170898
0.253601
0.239258
0.13092
-0.159302
-0.441589
-0.349731
-0.0354004
0.132141
0.166931
0.0820923
-0.0442505
-0.135803
-0.106812
0.06073
0.254211
0.378723
0.45929
0.458069
0.185242
-0.0698853
-0.0891113
-0.0674438
-0.0717163
-0.144958
-0.210876
-0.218506
-0.147095
-0.0253296
0.057373
-0.022583
-0.142517
-0.181274
-0.144348
-0.114136
-0.0967407
-0.0402832
0.0289917
0.0869751
0.0918579
0.0634766
-0.0112915
-0.205688
-0.317383
-0.278625
-0.195312
-0.0631714
0.0228882
0.0692749
0.0494385
-0.0317383
-0.142212
-0.119324
0.083313
0.204773
0.248718
0.352783
0.298767
0.208435
0.204773
0.123596
-0.00823975
-0.0540161
-0.0808716
-0.136108
-0.209045
-0.230713
-0.215149
-0.154724
-0.0283813
0
0.0158691
0.0521851
0.105896
0.109558
0.120239
0.242004
0.384827
0.421143
0.44281
0.370178
0.160217
0.0485229
-0.0378418
-0.151978
-0.158997
-0.105591
-0.0228882
0.0817871
0.0814819
0.0265503
0.00335693
-0.038147
-0.0839233
-0.0753784
-0.0637817
-0.0653076
-0.144043
-0.230408
-0.202026
-0.14679
-0.111389
-0.144348
-0.189819
-0.172424
-0.0738525
0.0424194
0.0497437
0.0100708
0.090332
0.167542
0.136414
0.229797
0.250244
0.315552
0.452881
0.559082
0.440369
0.285339
0.0396729
-0.309143
-0.561829
-0.593567
-0.439758
-0.354614
-0.279541
-0.136414
-0.0405884
-0.00946045
0.0814819
0.0854492
-0.0469971
-0.177307
-0.229492
-0.237122
-0.166626
-0.0622559
-0.0341797
-0.0485229
-0.0671387
-0.121155
-0.170898
-0.17334
-0.134888
0
0.110779
0.0640869
0.0360107
-0.00610352
-0.020752
-0.00457764
0.0360107
0.0790405
0.104065
0.0839233
0.000915527
0.00610352
0.0717163
0.0830078
0.0540161
0.0430298
0.0592041
0.130615
0.152893
0.143738
0.138855
0.183411
0.289917
0.433655
0.523376
0.54718
0.456543
0.382385
0.301819
0.239258
0.0427246
-0.137024
-0.228271
-0.334778
-0.381775
-0.263367
-0.134583
-0.0628662
-0.0897217
-0.317688
-0.450745
-0.394592
-0.244446
-0.0552368
0.0723267
0.0247192
-0.154419
-0.227966
-0.0946045
0.143127
0.522766
0.917664
1.11847
0.994568
0.674438
0.21759
-0.06073
-0.289001
-0.723572
-1.02112
-0.915527
-0.509949
-0.0582886
0.183411
0.144348
0.00457764
-0.0863647
-0.0280762
-0.020752
-0.0228882
-0.039978
-0.0497437
-0.0671387
-0.203857
-0.388489
-0.47699
-0.377197
-0.331726
-0.306702
-0.123596
0.0375366
0.11322
0.123291
0.212097
0.302429
0.279846
0.178833
0.107117
0.0408936
-0.133362
-0.167542
0.0924683
0.337524
0.437317
0.374146
0.13916
-0.0906372
-0.178833
-0.162048
-0.149841
-0.152283
-0.107727
-0.0708008
-0.0747681
-0.0674438
-0.0283813
-0.00244141
-0.0192261
0.0512695
0.170898
0.291138
0.432129
0.544434
0.386658
0.324402
0.333252
0.0723267
-0.431213
-0.592957
-0.412903
-0.114136
0.247498
0.351257
0.186768
0.0109863
-0.151062
-0.333252
-0.456848
-0.526428
-0.391235
-0.296631
-0.26062
-0.050354
0.154419
0.213318
0.152283
0.140076
0.155945
0.127869
0.119629
0.220032
0.420227
0.396729
0.142212
-0.180664
-0.37323
-0.26886
0.093689
0.421448
0.510864
0.345764
0.0445557
-0.264587
-0.531006
-0.615234
-0.606079
-0.474243
-0.227356
0.0192261
0.140076
0.158997
0.104675
0.0967407
0.110168
0.0891113
0.0741577
0.0643921
0.12085
0.124207
0.0488281
0.0436401
-0.0253296
-0.147095
-0.175781
-0.115356
-0.0708008
0.0756836
0.186462
0.174561
0.0192261
-0.0842285
-0.0857544
-0.0985718
-0.156555
-0.179749
-0.142517
-0.0561523
0.0628662
0.115051
0.121155
0.143433
0.279236
0.450134
0.536804
0.446167
0.0790405
-0.270386
-0.189209
0.259399
0.702209
0.78186
0.534973
0.108643
-0.460205
-0.722961
-0.668335
-0.53772
-0.440063
-0.377197
-0.285339
-0.159607
-0.130005
-0.260315
-0.358276
-0.317688
-0.256653
-0.121765
0.126648
0.320129
0.46936
0.568848
0.597534
0.622559
0.524292
0.323181
0.210876
-0.0262451
-0.231323
-0.148926
-0.193176
-0.215149
-0.274048
-0.287781
-0.255737
-0.231628
-0.188904
-0.182495
-0.218506
-0.23468
-0.207825
-0.0845337
-0.0100708
0.0497437
0.15564
0.201721
0.316467
0.429688
0.516663
0.432434
0.229797
0.065918
-0.103455
-0.264893
-0.395508
-0.41626
-0.271301
-0.0338745
0.108948
0.101318
0.0408936
-0.0457764
-0.0912476
-0.0772095
-0.0305176
0.0720215
0.195007
0.20813
0.182495
0.179749
0.212097
0.134888
0.109253
-0.0387573
-0.23468
-0.260315
-0.144958
-0.0863647
-0.0869751
-0.0259399
-0.0631714
-0.142517
-0.143738
-0.110474
-0.0549316
0.0332642
0.0946045
0.152893
0.279236
0.282288
0.0802612
-0.0637817
0.0875854
0.342407
0.570068
0.557556
0.223999
-0.017395
-0.0354004
-0.210266
-0.21759
-0.104065
-0.0308228
-0.0198364
-0.0119019
-0.0979614
-0.207825
-0.141907
-0.062561
0.0500488
0.143738
0.108337
-0.0561523
-0.301514
-0.448303
-0.376282
-0.201416
0.022583
0.303345
0.574341
0.643005
0.360413
-0.045166
-0.336304
-0.292053
-0.122375
-0.122986
-0.214233
-0.229187
-0.180969
-0.0765991
0.0247192
0.0622559
0.0531006
-0.0488281
-0.116272
-0.0222778
0.203857
0.366516
0.513
0.458984
0.317078
0.124512
-0.209656
-0.444946
-0.422974
-0.262756
-0.212097
-0.165405
-0.143433
-0.137939
-0.0375366
0.0317383
-0.0390625
-0.0689697
-0.0650024
-0.0698853
-0.0604248
-0.0567627
0.0140381
0.196228
0.411072
0.536804
0.376282
0.06073
-0.239258
-0.301514
-0.164185
0.116577
0.507202
0.592957
0.431519
0.105896
-0.236816
-0.408936
-0.372925
-0.392456
-0.292969
-0.169678
-0.0314331
0.0183105
0.0314331
0.0283813
-0.0814819
-0.189514
-0.185547
-0.0448608
0.174866
0.445862
0.626221
0.653992
0.443726
0.0698853
-0.220642
-0.39032
-0.426941
-0.184021
0.10437
0.151367
0.0753784
0.100403
0.219421
0.26001
0.142212
-0.151978
-0.354004
-0.341797
-0.309753
-0.198669
-0.00152588
0.219116
0.362854
0.335693
0.17395
0.032959
-0.0717163
-0.151062
-0.144348
-0.135498
-0.104065
-0.104065
-0.0662231
-0.0991821
-0.24231
-0.336609
-0.256653
-0.0201416
0.200806
0.233154
0.121765
0.0119019
0.0238037
0.0991821
0.149231
0.102844
0.0106812
-0.0476074
-0.13855
-0.174561
-0.106506
-0.0521851
-0.0250244
0
-0.00946045
-0.0534058
-0.00213623
0.189514
0.423889
0.577393
0.548706
0.298767
0.0460815
-0.222473
-0.26062
-0.180664
-0.198975
-0.244446
-0.193176
-0.170593
-0.142822
-0.0979614
-0.0564575
-0.0735474
-0.0466919
0.0253296
0.0640869
0.0848389
0.168762
0.320129
0.449524
0.38208
0.134583
-0.0369263
-0.0619507
-0.146179
-0.254822
-0.2771
-0.238647
-0.128174
0.00518799
0.0927734
0.0894165
-0.0204468
-0.160828
-0.206299
-0.189819
-0.0601196
0.0286865
0.0387573
0.0247192
0.0506592
0.0939941
0.118408
0.120239
0.247803
0.421448
0.479126
0.468445
0.426331
0.230408
0.00244141
-0.151367
-0.215454
-0.23407
-0.0357056
0.395203
0.732727
0.893555
0.71991
-0.0164795
-0.518188
-0.575256
-0.692444
-0.612793
-0.401611
-0.201416
-0.122681
-0.166626
-0.238953
-0.242004
-0.168152
-0.0863647
-0.0198364
-0.0100708
-0.0976562
-0.183716
-0.213318
-0.244446
-0.205383
-0.0643921
0.0610352
0.18219
0.26825
0.191956
-0.0363159
-0.226135
-0.249939
-0.072937
0.154114
0.224304
0.307007
0.42511
0.409241
0.270691
0.232849
0.0698853
-0.16449
-0.241394
-0.227356
-0.187683
-0.131531
-0.0302124
0.0613403
0.0796509
0.0241089
-0.0543213
-0.11322
-0.0701904
-0.0100708
0.0747681
0.102844
0.0793457
-0.0128174
-0.0979614
-0.0592041
0.0283813
0.0604248
0.0491333
0.00640869
0.00854492
0.085144
0.234375
0.361633
0.492249
0.481567
0.362244
0.20874
0.0875854
-0.0546265
-0.115356
-0.140076
-0.244751
-0.403748
-0.479431
-0.355225
-0.184631
-0.0790405
0.055542
0.214233
0.33844
0.32959
0.244751
0.0772095
-0.0753784
-0.173645
-0.164795
-0.108032
0.0637817
0.109558
0.0354004
-0.010376
-0.09552
-0.135498
0.017395
0.162964
0.213928
0.25177
0.191345
0.0289917
-0.149231
-0.186768
-0.249634
-0.298462
-0.324402
-0.308228
-0.256042
-0.136108
0.0927734
0.228882
0.325012
0.378723
0.289917
0.228271
0.187683
-0.0192261
-0.138855
-0.112
-0.141907
-0.0894165
-0.0308228
-0.0198364
-0.0430298
-0.114136
-0.177002
-0.154419
-0.124512
-0.137024
-0.129089
-0.0802612
0.0112915
0.149841
0.393982
0.460815
0.269165
-0.00854492
-0.158997
-0.0509644
0.0946045
0.105896
0.00366211
-0.088501
-0.161133
-0.195007
-0.224915
-0.210876
-0.136414
-0.0479126
0.0546265
0.0650024
0.0863647
0.111389
0.108337
0.11261
0.0619507
0.0866699
0.144043
0.227661
0.387268
0.376587
0.19928
0.0262451
-0.166016
-0.318604
-0.306091
-0.236511
-0.21698
-0.126648
0.0289917
0.0509644
0.0344849
0.0280762
-0.0796509
-0.215454
-0.316162
-0.376282
-0.335999
-0.196838
0.0247192
0.205383
0.340271
0.385437
0.303955
0.235291
0.134888
0.0143433
0.0497437
-0.0436401
-0.0845337
0.00701904
0.202332
0.451355
0.640564
0.611572
0.372009
0.0363159
-0.341187
-0.483398
-0.23468
-0.0088501
-0.0408936
-0.186462
-0.248108
-0.260315
-0.180359
-0.0576782
0.0289917
0.0857544
0.0698853
-0.0311279
-0.0634766
0
0.0582886
0.105286
0.112305
0.0369263
-0.261536
-0.556335
-0.593567
-0.405579
-0.125427
0.0457764
0.103455
0.127563
0.113831
0.09552
0.0698853
-0.0088501
-0.0686646
-0.110168
-0.0515747
0.0921631
0.238342
0.285034
0.217285
0.141296
-0.00518799
-0.135498
-0.137939
-0.027771
0.0598145
0.114136
0.144653
0.100403
0.0543213
0.0415039
0.0262451
0.0741577
0.192566
0.244446
0.208435
0.116882
0.110168
0.150452
0.179749
0.102844
-0.0436401
-0.0866699
-0.0576782
-0.0985718
-0.19165
-0.250549
-0.228577
-0.160217
-0.110779
-0.0735474
0
0.125732
0.252686
0.362549
0.391235
0.324707
0.180664
-0.0473022
-0.151672
-0.0747681
0.0680542
0.219421
0.24292
-0.0350952
-0.250549
-0.208435
-0.144653
-0.101013
-0.0476074
-0.0250244
0.0140381
0.11322
0.0830078
0.0744629
0.133972
0.107422
-0.0759888
-0.239563
-0.238953
-0.269165
-0.2771
-0.282593
-0.236511
-0.185547
-0.0680542
-0.00549316
-0.03479
-0.105896
-0.13092
-0.0888062
-0.0549316
-0.0265503
-0.00427246
0.0134277
0.0634766
0.0759888
0.0946045
0.0900269
0.148621
0.204468
0.0662231
-0.0109863
0.0271606
-0.00823975
-0.0469971
-0.050354
-0.0436401
-0.0784302
-0.0744629
-0.00762939
0.0918579
0.19104
0.179443
0.0430298
0.101929
0.309143
0.475769
0.549622
0.416565
0.105286
-0.0238037
-0.10498
-0.170898
0.0338745
0.231628
0.307922
0.232239
0.0793457
-0.161438
-0.396118
-0.437012
-0.364075
-0.352173
-0.36499
-0.316162
-0.228882
-0.115356
0.085144
0.175476
0.0961304
-0.057373
-0.150146
-0.232849
-0.225525
-0.0848389
0.0241089
0.122375
0.209656
0.0363159
-0.152588
-0.0628662
-0.0698853
-0.0158691
0.121155
0.232849
0.412292
0.620422
0.684509
0.471802
0.0405884
-0.415344
-0.574036
-0.419922
-0.239868
-0.179749
-0.154724
-0.117188
-0.100708
-0.0848389
-0.0479126
0.0228882
0.093689
0.111084
0.0900269
0.00579834
-0.0482178
0.0906372
0.20874
0.210876
0.163269
0.0305176
-0.180664
-0.307617
-0.273132
-0.15625
-0.0796509
-0.0680542
-0.0506592
-0.00823975
0.0366211
0.0680542
0.093689
0.0509644
-0.0338745
-0.0918579
-0.135498
-0.090332
-0.0177002
0.0424194
0.0570679
0.012207
0.00579834
0.0384521
0.0662231
0.0323486
0.00640869
-0.0088501
-0.020752
-0.0192261
-0.057373
-0.0442505
0.00946045
0.062561
0.135193
0.15564
0.119019
0.137634
0.0857544
-0.0958252
-0.138245
-0.0198364
0.212402
0.350952
0.411377
0.254822
-0.00457764
-0.151062
-0.259094
-0.38208
-0.406189
-0.280457
-0.152283
-0.0738525
-0.0161743
0.0747681
0.0640869
0.00549316
0.00488281
0.00732422
0.0289917
0.132446
0.218201
0.257568
0.315857
0.299683
0.158386
-0.020752
-0.0933838
-0.132751
-0.16449
-0.15686
-0.151062
-0.177002
-0.144348
-0.128479
-0.126648
-0.0106812
0.0753784
0.142822
0.203857
0.310059
0.407715
0.264893
-0.124817
-0.372314
-0.409851
-0.287476
-0.192261
-0.232544
-0.311584
-0.283813
-0.135193
-0.0613403
-0.0271606
0.0564575
0.147705
0.127869
0.150452
0.296936
0.420227
0.342712
0.177612
0.00305176
-0.133972
-0.174866
-0.17395
-0.223999
-0.206299
-0.134277
-0.0491333
-0.00732422
0.0592041
0.093689
0.13092
0.209961
0.266418
0.239563
0.155945
0.128174
0.105591
0.0692749
0.12085
0.224609
0.391846
0.467224
0.379944
0.204773
0.085144
-0.06073
-0.307922
-0.508728
-0.532227
-0.494385
-0.491333
-0.508118
-0.440979
-0.328674
-0.178528
-0.0485229
0.0524902
0.0949097
0.0784302
0.0601196
0.039978
0.0604248
0.104675
0.12085
0.10498
0.104675
0.0680542
0.0845337
0.12207
0.00213623
-0.115662
-0.0521851
-0.072937
-0.00488281
0.14679
0.236206
0.298767
0.265503
0.00305176
-0.256653
-0.314941
-0.307922
-0.24231
-0.0772095
0.0228882
0.015564
-0.0180054
-0.0836182
-0.0686646
-0.0158691
0.0167847
0.0506592
0.0485229
0.0756836
0.107117
0.137329
0.149231
0.149231
0.0964355
0.039978
0.0146484
0.00823975
-0.00946045
0.0515747
0.210266
0.397034
0.52948
0.570068
0.474243
0.250549
-0.0369263
-0.263977
-0.371704
-0.461731
-0.498962
-0.395813
-0.332031
-0.258789
-0.131531
-0.0720215
-0.0311279
0.0354004
0.0460815
-0.0393677
-0.0790405
-0.210266
-0.330505
-0.293274
-0.211487
-0.13916
-0.0604248
0.0595093
0.185852
0.194702
0.168457
0.189514
0.174255
0.226746
0.34668
0.290222
0.131531
0.134277
0.228577
0.324097
0.247803
0.0454712
0.0460815
0.0784302
0.0167847
-0.0497437
-0.0680542
-0.0778198
-0.0756836
-0.106506
-0.15564
-0.173645
-0.143738
-0.118408
-0.0982666
-0.0570679
-0.0234985
0.0704956
0.186157
0.157776
0.088501
0.0741577
0.0964355
0.146179
0.256653
0.301514
0.130005
-0.155029
-0.223694
-0.227356
-0.202942
-0.106812
-0.0534058
-0.0704956
-0.111389
-0.144958
-0.174866
-0.123901
-0.0164795
0.105286
0.129395
0.0787354
0.0631714
0.0576782
0.0735474
0.0460815
-0.0286865
-0.10498
-0.176697
-0.161133
-0.0979614
0.00213623
0.0985718
0.187683
0.252686
0.210266
0.144958
0.151062
0.229492
0.341797
0.466003
0.383606
0.138245
0.0906372
0.117798
-0.0717163
-0.206909
-0.175476
-0.0634766
0.00793457
0.00640869
-0.0143433
-0.0198364
-0.0720215
-0.0570679
0.0421143
0.0701904
0.150757
0.231934
0.139465
-0.0753784
-0.241089
-0.479431
-0.522461
-0.431519
-0.254211
-0.0918579
-0.0698853
-0.105286
-0.108337
-0.0784302
-0.0280762
0.0253296
0.055542
0.0579834
0.0445557
0.00305176
-0.0457764
-0.100403
-0.101624
-0.0244141
0.0366211
0.0512695
0.0231934
0.0741577
0.0588989
0.0518799
0.0830078
0.0924683
0.0717163
0.0881958
0.124512
0.135193
0.1651
0.135803
0.00854492
-0.0820923
-0.114136
-0.100403
-0.0408936
-0.0170898
0.0268555
0.0985718
0.124512
0.06073
-0.0479126
-0.0970459
-0.102844
-0.0100708
0.197449
0.374451
0.422363
0.304565
-0.0473022
-0.435486
-0.58136
-0.536194
-0.346985
-0.130615
0.071106
0.195007
0.162354
0.022583
0.0262451
0.0790405
0.0723267
0.0665283
0.0170898
-0.0686646
-0.0796509
-0.0482178
-0.012207
-0.00274658
0.0326538
0.137939
0.140076
0.115967
0.0631714
-0.0213623
-0.128479
-0.166321
-0.177917
-0.25177
-0.156555
-0.0222778
0.0289917
0.0756836
0.110168
0.0463867
-0.0469971
-0.0759888
-0.0415039
0.0167847
-0.0332642
-0.0634766
-0.0683594
-0.0595093
-0.0204468
0.00823975
-0.00610352
-0.0421143
-0.00793457
0.129089
0.259094
0.328979
0.361633
0.308228
0.219116
0.174255
0.183411
0.151978
0.106506
0.0631714
0.0668335
0.0973511
0.0942993
-0.0112915
-0.143127
-0.23407
-0.375061
-0.32074
-0.120544
-0.167542
-0.274353
-0.26825
-0.191345
-0.11322
-0.0738525
-0.0241089
0.0241089
0.142212
0.245056
0.218201
0.141907
0.0747681
0.0415039
-0.0411987
-0.131531
-0.189514
-0.254822
-0.224915
-0.0720215
0.0930786
0.214233
0.283813
0.175171
-0.0479126
-0.148315
-0.0735474
-0.00762939
0.038147
0.0582886
0.0445557
-0.017395
-0.0915527
-0.0418091
0.0631714
0.155334
0.20752
0.254822
0.275879
0.272217
0.197449
0.06073
-0.117188
-0.179749
-0.131531
-0.09552
-0.115051
-0.0448608
-0.0112915
-0.0524902
-0.138855
-0.179749
-0.0820923
0.0558472
0.120544
0.153503
0.120239
0.0189209
-0.0820923
-0.144653
-0.124207
-0.0961304
-0.0592041
0.0137329
0.115662
0.122986
-0.0280762
-0.282288
-0.435791
-0.386047
-0.21759
0.0204468
0.139465
0.136414
0.127869
0.140381
0.187378
0.289917
0.395813
0.384827
0.305481
0.217896
0.115967
0.0204468
-0.00274658
0.0357056
-0.0112915
-0.124207
-0.229492
-0.257263
-0.209045
-0.133057
-0.140686
-0.133667
-0.0228882
0.0119019
0
0.00915527
-0.062561
-0.112305
-0.0912476
-0.0491333
-0.0482178
0.017395
0.0979614
0.194702
0.318604
0.446472
0.473938
0.222778
-0.0619507
-0.0753784
-0.0720215
-0.110168
-0.150452
-0.18158
-0.23407
-0.263977
-0.248718
-0.272522
-0.300598
-0.142212
0.0579834
0.224609
0.275269
0.224304
0.147095
0.0552368
-0.0662231
-0.215454
-0.232239
-0.127869
-0.0393677
0.0366211
0.0949097
0.122375
0.0793457
0.0338745
0.0280762
0.0418091
0.0527954
0.0411987
-0.0152588
-0.0192261
0.0585938
0.209656
0.282898
0.256958
0.185242
0.0244141
-0.111389
-0.19043
-0.126038
-0.0714111
-0.0164795
0.0134277
-0.0296021
-0.0631714
-0.0354004
0.0430298
0.136719
0.137634
0.0485229
0.0570679
0.212402
0.329895
0.25116
-0.0500488
-0.368652
-0.454712
-0.368347
-0.276184
-0.0976562
0.0830078
0.101013
0.121155
0.123596
0.0701904
-0.0820923
-0.222168
-0.178223
-0.0439453
0.010376
0.0973511
0.202637
0.288086
0.328979
0.141296
-0.116882
-0.284119
-0.274048
-0.162659
-0.0894165
-0.067749
-0.055542
-0.0320435
0.0228882
0.0204468
0.0100708
0.0146484
0.00152588
-0.000915527
0.0012207
0.0158691
-0.0161743
-0.0457764
-0.0857544
-0.117188
-0.11322
-0.0485229
0.0473022
0.153198
0.210571
0.248108
0.282288
0.356445
0.305481
0.155945
0.0326538
-0.0582886
-0.220032
-0.35675
-0.207214
0.0180054
0.196228
0.25238
0.187683
0.0753784
0.0396729
-0.0143433
-0.06073
-0.106506
-0.120544
-0.140076
-0.15564
-0.161743
-0.129395
-0.127258
-0.155334
-0.119019
-0.0564575
-0.0564575
0.00457764
0.133057
0.32196
0.533142
0.520325
0.314331
0.0759888
-0.093689
-0.123596
0.000610352
0.0378418
0.0231934
-0.00762939
-0.072937
-0.0665283
0.0201416
0.0494385
0.000305176
-0.0616455
-0.0894165
-0.088501
-0.0320435
0.00854492
0.00335693
-0.0866699
-0.155945
-0.19165
-0.17334
-0.157166
-0.151062
-0.109558
-0.0466919
-0.0582886
-0.050354
-0.0558472
-0.0656128
-0.0650024
-0.0982666
-0.132141
-0.0466919
0.0997925
0.211182
0.285034
0.303955
0.250244
0.0964355
-0.0534058
-0.0622559
-0.0305176
0.00518799
0.0912476
0.202026
0.256653
0.220642
0.141907
0.0827026
0.0888062
0.149536
0.134583
0.0305176
-0.0234985
-0.108643
-0.206299
-0.176086
0.0161743
0.241089
0.289917
0.0238037
-0.267334
-0.361633
-0.321045
-0.166321
0.0234985
0.123596
0.0796509
0.0427246
0.0210571
0.00946045
0.0424194
0.0588989
0.0363159
0.00946045
0.00183105
-0.0189209
-0.00335693
0.0387573
-0.0308228
-0.098877
-0.1297
-0.0354004
0.155945
0.187378
0.078125
-0.0558472
-0.124817
-0.114441
-0.0747681
-0.0119019
-0.00549316
-0.0296021
-0.0296021
-0.0228882
0.00244141
0.0582886
0.131226
0.195007
0.271912
0.332336
0.201111
0.0231934
-0.015564
0.0109863
0.0115967
-0.0100708
0.0109863
0.0332642
0.0234985
-0.0518799
-0.141907
-0.124207
-0.0143433
0.0817871
0.0894165
0.0442505
-0.0601196
-0.207825
-0.246277
-0.190735
-0.122986
-0.0274658
0.00640869
-0.0100708
0.015564
0.0778198
0.127869
0.248413
0.413818
0.441589
0.359802
0.259705
0.110474
-0.0708008
-0.168457
-0.158997
-0.107727
-0.0564575
-0.0540161
-0.17334
-0.284729
-0.269165
-0.183716
-0.118103
-0.0656128
-0.0387573
0.055542
0.153198
0.134277
0.0784302
0.0320435
-0.0198364
-0.107117
-0.209656
-0.228577
-0.221863
-0.168152
-0.0668335
0.0408936
0.148315
0.19165
0.132141
0.0845337
0.0512695
0.0500488
0.100403
0.178833
0.315247
0.458984
0.502014
0.319214
0.0714111
-0.191345
-0.354309
-0.372925
-0.315247
-0.193176
-0.120544
-0.0878906
-0.0772095
-0.0289917
0.0546265
0.153503
0.263672
0.286255
0.149841
0.00823975
-0.137329
-0.339661
-0.340271
-0.194397
-0.0601196
0.0411987
0.0717163
0.038147
-0.0134277
-0.0720215
-0.0830078
-0.0842285
-0.0723267
-0.0128174
-0.0894165
-0.151978
-0.0466919
0.0918579
0.181274
0.246277
0.160217
-0.0369263
-0.15564
-0.154419
-0.045166
0.078125
0.21637
0.376282
0.526733
0.463562
0.131226
-0.25238
-0.418091
-0.338135
-0.287781
-0.276184
-0.254517
-0.27771
-0.400696
-0.450745
-0.37384
-0.212708
0.0305176
0.243835
0.335693
0.39093
0.478516
0.485535
0.454102
0.307922
0.043335
-0.152283
-0.188293
-0.0796509
-0.0460815
-0.078125
-0.088501
-0.0976562
-0.0912476
-0.0900269
-0.0970459
0.0283813
0.217896
0.307312
0.359802
0.345459
0.184326
-0.039978
-0.101929
-0.0765991
-0.0427246
-0.0180054
0.0747681
0.090332
0.0549316
-0.00610352
