0.0521851
0.0485229
0.0717163
0.143127
0.1828
0.163879
0.111694
-0.0341797
-0.106812
-0.193176
-0.212708
-0.162354
-0.227356
-0.289612
-0.223694
0.00396729
0.143433
0.149536
0.0900269
-0.012207
-0.0985718
-0.151367
-0.144653
-0.0546265
0.0244141
0.118408
0.142822
0.105591
0.0234985
0.0152588
0.0619507
0.140686
0.196838
0.1651
0.120544
-0.0222778
-0.169373
-0.179138
-0.038147
-0.0222778
-0.137024
-0.133972
-0.0570679
0.0497437
0.0881958
0.0210571
-0.0338745
-0.0488281
-0.0357056
0.0790405
0.267029
0.423584
0.527039
0.385437
0.0897217
-0.193787
-0.383301
-0.413818
-0.267029
-0.149536
-0.112915
-0.149841
-0.0588989
0.0402832
0.0112915
0.00946045
0.045166
0.0384521
0.0646973
0.0460815
0.00213623
0.020752
0.038147
0.0967407
0.0558472
-0.0344849
0.0012207
0.0662231
0.119934
0.236511
0.376282
0.437622
0.27832
0.0643921
-0.0778198
-0.090332
-0.0213623
0.000915527
0.0088501
-0.0408936
-0.160522
-0.1651
-0.108337
-0.119019
-0.101624
-0.0662231
-0.0552368
-0.0100708
-0.0112915
-0.109253
-0.0921631
-0.0610352
-0.0170898
-0.0524902
-0.0964355
-0.100708
-0.0234985
0.0222778
-0.0198364
0
0.00823975
-0.0146484
-0.0234985
0.0622559
0.143127
0.1828
0.247498
0.258484
0.206909
0.162354
0.136108
0.10376
0.0183105
0.0125122
0.0927734
0.16449
0.142517
0.0991821
0.0848389
0.0921631
0.106201
0.101318
0.11322
0.0857544
0.0723267
0.0558472
-0.0268555
-0.10376
-0.1651
-0.243225
-0.317078
-0.226135
-0.0985718
-0.0158691
-0.0088501
-0.062561
-0.105896
-0.0869751
-0.065918
-0.0460815
-0.0540161
-0.0283813
-0.0088501
-0.0140381
-0.0439453
-0.122681
-0.142212
-0.0640869
0.0405884
0.176392
0.220642
0.176697
0.120239
0.136108
0.187073
0.205994
0.198669
0.14801
0.0369263
-0.0234985
0.0823975
0.207214
0.26886
0.322571
0.26886
0.153198
0.146484
0.223389
0.198364
0.0979614
0.015564
-0.0454712
-0.101929
-0.118713
-0.179443
-0.171814
-0.156555
-0.0805664
-0.0308228
0.0765991
0.126648
0.0531006
-0.0283813
-0.0622559
-0.062561
-0.0891113
-0.117188
-0.12085
-0.085144
0.0134277
0.0808716
0.0579834
-0.00732422
0.0289917
0.149536
0.25238
0.296936
0.26062
0.21637
0.143433
-0.000915527
-0.0601196
0.0192261
0.187073
0.292358
0.338745
0.316467
0.18158
-0.0241089
-0.0979614
-0.0860596
-0.106506
-0.177917
-0.18158
-0.178528
-0.198364
-0.18158
-0.146484
-0.0634766
-0.015564
-0.0253296
-0.0985718
-0.0567627
-0.0088501
-0.0119019
0.0411987
0.0942993
0.209961
0.28656
0.334778
0.254822
0.148621
0.0137329
-0.0360107
0.027771
0.0820923
0.120544
0.12146
0
-0.065918
-0.105591
-0.0964355
-0.0137329
0.0189209
0.0344849
0.114441
0.161133
0.129089
0.0863647
0.0228882
0.0183105
0.0296021
0.00213623
-0.00549316
-0.0189209
-0.0524902
-0.0619507
-0.0158691
0.0991821
0.146179
0.0762939
-0.0897217
-0.136414
-0.178528
-0.20813
-0.136414
-0.043335
-0.0616455
-0.0390625
-0.0360107
-0.0491333
-0.0744629
-0.0949097
-0.134888
-0.0656128
0.00823975
0.0317383
0.0628662
0.0787354
0.101013
0.180664
0.194092
0.113525
0.050354
0.0466919
-0.0274658
-0.149231
-0.100403
0.0640869
0.153809
0.179443
0.133972
0.00335693
-0.0909424
-0.0515747
0.0997925
0.272217
0.301208
0.201721
0.0338745
-0.14801
-0.245056
-0.167236
-0.0134277
0.0741577
-0.0112915
-0.102844
-0.14801
-0.21637
-0.221863
-0.151672
-0.194397
-0.198975
-0.0637817
0.0521851
0.0592041
0.00701904
-0.10498
-0.173645
-0.174255
-0.134277
-0.0393677
0.0360107
0.107117
0.169983
0.179443
0.162964
0.141602
0.0714111
0.000915527
-0.0363159
-0.0698853
-0.0857544
-0.0817871
-0.108643
-0.119324
-0.139771
-0.145569
-0.0863647
0.0601196
0.191345
0.215759
0.137939
-0.00640869
-0.106812
-0.0524902
0.0170898
0.0650024
0.100098
0.0164795
-0.130005
-0.176392
-0.196533
-0.196228
-0.0564575
0.0387573
0.038147
0.00640869
0.00457764
-0.00518799
-0.00701904
-0.0106812
-0.0396729
-0.0088501
0.0357056
0.0897217
0.232544
0.317688
0.248718
0.0588989
-0.213013
-0.439758
-0.435791
-0.315552
-0.201111
-0.105591
-0.0149536
-0.0280762
-0.0994873
-0.118713
-0.0930786
-0.0500488
0.0485229
0.0912476
0.125732
0.153809
0.13916
0.0640869
0.0674438
0.108337
0.0411987
-0.050354
-0.0909424
-0.124512
-0.0512695
-0.010376
-0.0637817
-0.169067
-0.102539
-0.10376
-0.125427
-0.168762
-0.155945
-0.126343
-0.0460815
0.0735474
0.163879
0.19928
0.200806
0.110474
-0.0296021
-0.139771
-0.215149
-0.213928
-0.184937
-0.0790405
0.0344849
0.0469971
0.0375366
0.0390625
0.0106812
-0.0473022
-0.135193
-0.21698
-0.116882
0.111084
0.131836
0.0604248
0.0430298
-0.0213623
-0.123291
-0.143738
-0.0491333
0.072937
0.221863
0.286865
0.234375
0.123291
0.0756836
-0.104675
-0.334778
-0.332031
-0.257568
-0.184326
-0.128479
-0.0283813
0.162048
0.333557
0.391846
0.358582
0.235901
0.0973511
0.00213623
-0.0512695
-0.043335
-0.0622559
-0.0674438
-0.115662
-0.161438
-0.0906372
-0.0454712
-0.0491333
-0.0997925
-0.132141
-0.198364
-0.220032
-0.154419
-0.101318
-0.00335693
0.0762939
0.0973511
0.0918579
0.065918
0.0198364
-0.0387573
-0.0283813
-0.0247192
-0.00213623
0.0643921
0.0527954
-0.071106
-0.101013
-0.0366211
0.0296021
0.0613403
0.128174
0.210571
0.254517
0.324402
0.342407
0.183105
-0.0790405
-0.168457
-0.164185
-0.0747681
0.0283813
0.0958252
0.217285
0.264587
0.179138
0.0662231
-0.0778198
-0.214844
-0.263977
-0.203552
-0.157776
-0.0778198
0.0143433
-0.00396729
-0.0527954
-0.159607
-0.158081
-0.115662
-0.0344849
0.0912476
0.218506
0.22644
0.110779
-0.00610352
-0.0311279
-0.0256348
-0.0341797
-0.00946045
0.0457764
0.115356
0.174255
0.208435
0.22583
0.230103
0.160217
0.0888062
0.0869751
0.0402832
-0.0411987
-0.0778198
-0.065918
-0.0564575
-0.00518799
0.0384521
0.0747681
0.0305176
-0.0576782
-0.130615
-0.168457
-0.17395
-0.11322
-0.0576782
-0.0115967
0.0134277
0.055542
0.0909424
0.135193
0.121155
0.010376
-0.171509
-0.26947
-0.17334
0.00244141
0.0912476
0.0769043
-0.0216675
-0.0430298
0.00457764
0.0869751
0.183105
0.174561
0.134277
0.122375
0.0854492
0.0650024
-0.00366211
-0.0384521
0.0177002
0.0305176
0.100708
0.17395
0.197754
0.177002
0.174866
0.13855
0.0158691
-0.183716
-0.374756
-0.430298
-0.403137
-0.339355
-0.213928
-0.0561523
0.00305176
0.0238037
0.0482178
0.0939941
0.10376
0.0967407
0.152893
0.187378
0.154724
0.0973511
0.0268555
-0.0534058
-0.150757
-0.108643
-0.0500488
-0.0302124
-0.00701904
0.0616455
0.0610352
-0.00244141
0.0201416
0.103455
0.142822
0.124817
0.0802612
-0.0198364
-0.0866699
-0.0656128
-0.0244141
0.0497437
0.065918
0.0241089
-0.00335693
-0.0537109
-0.0619507
-0.0164795
0.0106812
-0.00183105
-0.0125122
0.0134277
0.0891113
0.172424
0.148621
0.131226
0.170898
0.250854
0.232849
0.109863
-0.055542
-0.249939
-0.298767
-0.141296
0.083313
0.171509
0.144653
0.00549316
-0.1297
-0.189209
-0.211182
-0.219116
-0.201111
-0.180054
-0.113525
0.0228882
0.0622559
0.0393677
-0.045166
-0.0161743
0.0735474
0.0878906
0.114136
0.135193
0.139771
0.0326538
-0.0759888
-0.0732422
0.0137329
-0.0308228
-0.0802612
-0.116882
-0.0961304
-0.0296021
0.0579834
0.157471
0.23407
0.167542
0.0244141
-0.107117
0.0524902
0.261841
0.282898
0.206604
0.0717163
-0.0930786
-0.24231
-0.285339
-0.265503
-0.23407
-0.183411
-0.127258
-0.0891113
-0.0262451
0.000610352
0.0372314
0.110779
0.0949097
0.0622559
0.0234985
0.0289917
0.0485229
0.0634766
0.0463867
0.043335
0.0622559
0.083313
0.0622559
-0.0088501
-0.0253296
0.00488281
-0.00701904
-0.0152588
-0.0692749
-0.10376
-0.0845337
-0.0491333
-0.00183105
0.00335693
-0.0244141
-0.0537109
-0.112305
-0.100403
-0.0698853
-0.0454712
0.00610352
0.0549316
0.196533
0.336914
0.447693
0.483093
0.440063
0.238342
-0.0473022
-0.276794
-0.279846
-0.269775
-0.272827
-0.177917
-0.0665283
-0.0601196
-0.0283813
-0.0244141
-0.0247192
-0.0192261
-0.0515747
-0.0994873
-0.133362
-0.139465
-0.109558
0.00183105
0.085144
0.0946045
0.116577
0.0668335
0.11322
0.174561
0.202637
0.136414
0.0354004
-0.0509644
-0.109863
-0.137939
-0.112305
-0.0671387
-0.0485229
-0.0302124
0.0430298
0.0836182
0.0161743
-0.0726318
-0.0564575
-0.0234985
-0.0424194
-0.0616455
-0.0430298
0.0305176
0.131226
0.163879
0.144958
0.161133
0.210876
0.259705
0.274353
0.229492
0.132446
0.0274658
-0.045166
-0.0946045
-0.0775146
-0.0427246
0.0115967
-0.00671387
0.000915527
0.0473022
0.0927734
0.134583
0.148621
0.105591
0.0338745
-0.0793457
-0.0930786
-0.0820923
-0.0796509
-0.0808716
-0.100708
-0.0363159
0.015564
-0.0149536
-0.0683594
-0.128479
-0.167847
-0.105896
-0.010376
0.0772095
0.101013
0.0802612
0.0805664
0.0289917
-0.0674438
-0.163879
-0.166016
-0.125122
-0.0384521
0.0558472
0.10376
0.0717163
-0.00762939
-0.0393677
0.00152588
0.0753784
0.203247
0.297546
0.328674
0.309143
0.245056
0.0994873
-0.148621
-0.322571
-0.311279
-0.178528
-0.0357056
0.0909424
0.170593
0.204468
0.143738
0.0863647
0.0460815
0.0299072
-0.00610352
0.0546265
0.123901
0.174866
0.21759
0.153198
0.0125122
-0.167847
-0.250854
-0.158081
-0.0415039
0.0323486
0.0918579
0.0515747
-0.0671387
-0.122375
-0.202332
-0.220642
-0.144958
-0.0567627
0.00946045
0.0991821
0.0769043
0.0881958
0.127869
0.0991821
0.0424194
0.0582886
0.0720215
0.0619507
0.038147
-0.0799561
-0.152283
-0.145874
-0.0900269
-0.0421143
-0.00579834
-0.0088501
0.00488281
0.012207
0.0143433
-0.0332642
-0.00915527
0.151367
0.228882
0.168762
0.104675
0.0643921
0.0350952
0.0601196
0.0875854
-0.00488281
-0.0646973
-0.0949097
-0.129089
-0.154114
-0.195618
-0.148926
-0.0357056
0.0784302
0.115356
0.150146
0.105896
0.0335693
-0.00244141
-0.00976562
-0.00274658
0.0219727
-0.0198364
-0.0405884
-0.0531006
-0.0958252
-0.0942993
-0.0158691
0.0637817
0.133057
0.186768
0.1828
0.146179
0.115662
0.138855
0.16449
0.111694
0.0680542
0.0476074
0.0543213
0.0350952
-0.0271606
-0.0216675
-0.0158691
0.00915527
0.0125122
-0.0402832
-0.0698853
-0.13092
-0.150757
-0.141296
-0.103149
-0.0912476
-0.124817
-0.135498
-0.158691
-0.101013
0
0.0323486
0.0442505
0.0369263
0.0564575
0.116272
0.141296
0.0775146
0.0088501
-0.0900269
-0.167236
-0.130615
-0.0698853
0.0497437
0.202026
0.240479
0.209045
0.173645
0.0744629
0.00946045
0.0012207
0.0344849
-0.0253296
-0.0213623
0.0680542
0.103149
0.0735474
0.0558472
-0.0448608
-0.134888
-0.179443
-0.140686
-0.0112915
0.148621
0.205994
0.113831
-0.00457764
-0.0592041
-0.148315
-0.168762
-0.0360107
0.0793457
0.124512
0.122375
0.0582886
-0.0012207
-0.0582886
-0.0610352
0.0195312
0.088501
0.0744629
0.0579834
0.0231934
-0.0289917
-0.0967407
-0.0961304
-0.120544
-0.133667
-0.0567627
0.0466919
0.083313
0.083313
0.0857544
0.0546265
0.0567627
0.0946045
0.111084
0.0805664
-0.00946045
-0.0680542
-0.0363159
0.0363159
0.131836
0.198364
0.267334
0.236511
0.0869751
-0.039978
-0.0396729
0.00579834
-0.0448608
-0.106812
-0.119629
-0.132446
-0.140991
-0.104675
-0.0366211
-0.0137329
0.0759888
0.196533
0.22583
0.2005
0.185852
0.108337
0.00335693
-0.0418091
-0.0134277
0.0564575
0.0735474
-0.00701904
-0.0704956
-0.112305
-0.105896
-0.0497437
0.00366211
-0.0497437
-0.137024
-0.207825
-0.224915
-0.217896
-0.217896
-0.224609
-0.212097
-0.135803
0.0799561
0.219727
0.265808
0.314331
0.267029
0.0930786
-0.0357056
-0.0662231
-0.0460815
0.00518799
0.0534058
0.0259399
0.00488281
-0.0112915
0.0384521
0.0799561
0.0912476
0.0674438
0.0680542
0.139465
0.203857
0.204773
0.195618
0.13031
0.0280762
-0.0973511
-0.112305
-0.121155
-0.145569
-0.144653
-0.139771
-0.116882
-0.043335
0.0244141
0.0668335
0.116882
0.098877
0.0387573
-0.0234985
-0.072937
-0.0692749
-0.0708008
-0.0506592
-0.0579834
-0.090332
-0.149841
-0.161133
-0.100098
-0.0537109
-0.0137329
-0.00457764
-0.00457764
0.0598145
0.0592041
0.00518799
0.055542
0.130005
0.213013
0.317993
0.25116
0.0875854
-0.00579834
-0.0485229
-0.078125
-0.101318
-0.105286
-0.150452
-0.184326
-0.158081
-0.0161743
0.116882
0.213623
0.190735
0.158081
0.065918
0.0372314
0.0100708
-0.0643921
-0.125122
-0.130005
-0.166626
-0.161743
-0.129089
-0.0549316
0.0149536
0.0723267
0.088501
0.0708008
0.0823975
0.113831
0.179443
0.248718
0.253601
0.200806
0.0140381
-0.232544
-0.306396
-0.222168
-0.10498
-0.0646973
-0.11261
-0.158997
-0.16571
-0.085144
-0.0137329
0.0253296
0.0778198
0.0796509
0.0241089
0.0485229
0.195007
0.309143
0.284729
0.201111
0.0643921
-0.062561
-0.119934
-0.127563
-0.0704956
0.0543213
0.144958
0.136414
0.108948
0.00549316
-0.180969
-0.221252
-0.106201
-0.0396729
-0.0466919
-0.0265503
0.0421143
0.0765991
0.0692749
0.0952148
0.202026
0.307617
0.248718
0.0189209
-0.196838
-0.281067
-0.290833
-0.156555
-0.00793457
0.0634766
0.0610352
-0.0460815
-0.142517
-0.19165
-0.173645
-0.0772095
0.0549316
0.0735474
0.0454712
0.0256348
-0.0283813
-0.0283813
0.0354004
0.167847
0.203247
0.083313
-0.00305176
-0.00854492
0.0442505
-0.0149536
-0.119629
-0.173645
-0.183411
-0.0582886
0.131226
0.216675
0.189819
0.111694
0.00854492
-0.00274658
0.0405884
0.0991821
0.100403
0.13092
0.146179
0.135803
0.0692749
-0.00488281
-0.0341797
-0.118408
-0.139465
-0.0482178
0.057373
0.0942993
0.0238037
-0.0967407
-0.139465
-0.0979614
0.00213623
0.0216675
-0.0335693
-0.142822
-0.202332
-0.144653
-0.0314331
0.116577
0.188904
0.16571
0.0958252
-0.0216675
-0.135803
-0.177307
-0.137329
-0.0942993
-0.0366211
-0.0494385
-0.0515747
-0.0631714
-0.0271606
0.0341797
0.0784302
0.0759888
0.0698853
0.0765991
0.0991821
0.133362
0.125427
0.160828
0.144653
0.038147
0.0463867
0.0839233
0.0387573
-0.0430298
-0.0650024
-0.11322
-0.116577
-0.118713
-0.141296
-0.141907
-0.148315
-0.115051
-0.0762939
-0.0112915
0.0561523
0.0616455
0.0683594
0.0582886
0.0317383
0.0546265
0.0921631
0.0827026
0.00946045
-0.0552368
-0.0509644
-0.0244141
0.027771
0.0326538
-0.0320435
-0.0814819
-0.0219727
0.0457764
0.0790405
0.0982666
0.0317383
-0.0802612
-0.161133
-0.137024
-0.0662231
0.0268555
0.0741577
0.120239
0.16449
0.210571
0.195312
0.148621
0.14679
0.162048
0.129395
0.0900269
0.020752
-0.16449
-0.299377
-0.260925
-0.0979614
0.0164795
0.0473022
0.0177002
-0.0241089
-0.032959
-0.0128174
0.0613403
0.0302124
-0.0363159
-0.117798
-0.189209
-0.215149
-0.198059
-0.107117
-0.0195312
0.0576782
0.153198
0.214539
0.110779
-0.0344849
-0.0772095
-0.131531
-0.177612
-0.118408
-0.0567627
-0.0549316
-0.0616455
-0.0198364
0.0234985
0.133362
0.185242
0.1474
0.071106
-0.0201416
-0.0759888
-0.0808716
-0.038147
-0.00732422
0.00701904
0.0445557
0.0439453
0.0991821
0.141907
0.157471
0.163269
0.171509
0.104065
0.0402832
-0.0534058
-0.140686
-0.154419
-0.106506
-0.0128174
0.0363159
0.0665283
0.039978
0.00213623
0.017395
0.0921631
0.177002
0.149536
0.101013
0.0891113
0.0637817
0.0210571
-0.0549316
-0.14801
-0.245972
-0.310669
-0.279846
-0.117798
-0.00915527
0.0863647
0.12146
0.130615
0.0799561
0.0454712
0.0375366
0.00335693
-0.0228882
-0.0476074
-0.0537109
-0.0497437
-0.0323486
0.0192261
0.0274658
0.0262451
0.0900269
0.0891113
0.00701904
-0.0588989
-0.0704956
-0.0143433
0.0289917
0.0244141
-0.00701904
-0.0515747
-0.0909424
-0.00671387
0.153198
0.232849
0.172424
0.0997925
0.0643921
-0.00274658
-0.0997925
-0.152893
-0.196533
-0.19989
-0.0900269
0.0933838
0.274048
0.382996
0.302429
0.119934
-0.0787354
-0.209045
-0.251465
-0.234985
-0.177917
-0.184937
-0.171204
-0.072937
0.109558
0.195618
0.245361
0.293274
0.251465
0.106506
-0.0430298
-0.0991821
-0.0448608
-0.09552
-0.195923
-0.213318
-0.123291
-0.0106812
0.0308228
0.109558
0.143433
0.0839233
-0.0137329
-0.0717163
-0.0491333
0.0466919
0.0930786
0.0973511
0.0915527
0.0701904
0.0613403
0.0442505
0.0350952
0.0189209
0.00854492
0.0201416
0.0387573
0.039978
0.0527954
0.0527954
0.0479126
0.0170898
-0.0308228
-0.0427246
-0.0320435
-0.0686646
-0.2005
-0.244446
-0.203247
-0.144348
-0.0796509
0.0241089
0.177307
0.262146
0.238647
0.157471
0.0234985
-0.0784302
-0.156555
-0.125427
-0.0088501
0.108948
0.118103
-0.0167847
-0.119324
-0.102234
-0.00640869
0.0152588
0.0140381
0.0747681
0.133057
0.120239
0.154419
0.127869
0.0878906
0.0430298
0.0473022
0.0613403
0.0262451
-0.00762939
-0.0354004
-0.0686646
-0.0924683
-0.142212
-0.191956
-0.180969
-0.144043
-0.119934
-0.108643
-0.00579834
0.0778198
0.0549316
0.0320435
0.00274658
-0.0973511
-0.141296
-0.0994873
-0.0842285
-0.0759888
0.0289917
0.102844
0.0964355
0.0640869
0.0497437
0.109558
0.208435
0.238037
0.217896
0.162964
0.0320435
-0.0125122
0.0286865
0.0643921
0.0332642
-0.00488281
-0.0289917
-0.0302124
-0.0326538
0.143433
0.276794
0.285339
0.253296
0.141907
-0.0427246
-0.172729
-0.210571
-0.17334
-0.126953
-0.0335693
0.00976562
-0.0143433
-0.00793457
-0.0134277
0.00274658
-0.0143433
-0.0668335
-0.130615
-0.098877
-0.0558472
-0.0369263
-0.0405884
-0.0180054
0.0308228
0.103149
0.124817
0.144348
0.188293
0.139771
0.0665283
-0.0292969
-0.0680542
-0.083313
-0.0881958
-0.0665283
-0.0262451
0.0274658
0.0509644
0.0326538
-0.0247192
-0.0585938
-0.00213623
0.0305176
0.000305176
-0.00762939
0.00701904
0.0714111
0.0842285
0.0460815
0.00701904
-0.0457764
-0.0704956
-0.0747681
-0.0378418
0.0109863
0.0320435
0.00152588
-0.00640869
0.0296021
0.0720215
0.0668335
0
-0.0238037
-0.00396729
-0.0469971
-0.0942993
-0.0964355
-0.0857544
-0.0784302
-0.0588989
0.0408936
0.0888062
0.101318
0.126648
0.101624
0.065918
0.0177002
-0.0140381
-0.0994873
-0.12146
-0.0601196
-0.0131226
0.0610352
0.135193
0.163574
0.202332
0.196533
0.085144
-0.0460815
-0.135803
-0.261536
-0.410461
-0.453186
-0.370789
-0.258789
-0.156555
-0.0610352
-0.00640869
0.101929
0.166321
0.232239
0.280457
0.263367
0.238647
0.301208
0.368958
0.331726
0.230408
0.0897217
0.00183105
-0.0564575
-0.0924683
-0.0616455
-0.0180054
-0.0131226
0.045166
0.0985718
0.0802612
0.0326538
0.00732422
-0.00396729
-0.0421143
-0.0500488
-0.0106812
0.0262451
0.0576782
0.0720215
0.0418091
0.0134277
-0.0592041
-0.124512
-0.167542
-0.144348
-0.0567627
0.00640869
0
0.0457764
0.0558472
-0.0610352
-0.121765
-0.101929
-0.0857544
-0.121155
-0.147705
-0.209961
-0.237427
-0.18219
-0.039978
0.126648
0.242004
0.291748
0.359192
0.379028
0.272522
0.1828
0.137634
0.0357056
-0.0759888
-0.0878906
-0.0427246
0.0125122
-0.00335693
-0.0463867
-0.0991821
-0.153198
-0.161743
-0.139771
-0.0256348
0.0668335
0.0997925
0.119019
0.13855
0.06073
0.00946045
0.0445557
0.09552
0.158386
0.195923
0.155945
0.0280762
-0.114746
-0.153503
-0.123901
-0.093689
-0.0817871
-0.0866699
-0.0982666
-0.111389
-0.0967407
-0.0158691
0.0668335
0.114136
0.083313
0.0265503
-0.0500488
-0.103149
-0.150757
-0.136108
-0.0491333
0.0656128
0.0842285
0.0650024
0.0119019
-0.045166
-0.0460815
-0.062561
-0.0463867
-0.0265503
-0.0100708
0.0164795
0.0421143
0.107727
0.090332
0.072937
0.0808716
0.078125
0.067749
0.000915527
-0.0552368
-0.155334
-0.193176
-0.0827026
0.159912
0.298462
0.346985
0.325928
0.210266
0.00274658
-0.139771
-0.115051
-0.071106
-0.0369263
-0.0198364
0.00457764
0.0585938
0.0216675
-0.0869751
-0.169983
-0.193176
-0.148926
-0.0665283
0.0488281
0.10437
0.0744629
-0.0296021
-0.0546265
0.000915527
0.0704956
0.108337
0.116882
0.0692749
-0.0894165
-0.255737
-0.265503
-0.158081
0.0143433
0.104065
0.0106812
-0.0592041
-0.0427246
0.0802612
0.204163
0.283813
0.198059
0.0396729
-0.027771
-0.0631714
-0.0308228
0.00701904
0.065918
0.12146
0.147095
0.119934
0.0949097
0.0558472
0.0427246
0.0793457
0.119324
0.0897217
-0.0518799
-0.163269
-0.278015
-0.274658
-0.153503
-0.0323486
0.0469971
0.15686
0.16449
0.0610352
-0.0592041
-0.19928
-0.293274
-0.296936
-0.215454
-0.110779
-0.078125
-0.0753784
-0.0234985
0.0146484
0.0289917
0.0759888
0.148926
0.211792
0.271606
0.256348
0.199585
0.108643
0.0350952
-0.022583
-0.0552368
-0.0192261
0.0259399
0.0302124
-0.00183105
-0.0265503
0.0115967
0.0595093
0.0643921
0.0613403
0.0787354
0.0497437
0.0637817
0.142212
0.214539
0.206604
0.129089
0.00946045
-0.123596
-0.270386
-0.327454
-0.26947
-0.158691
-0.0299072
0.0588989
0.0643921
0.0497437
0.0454712
0.0317383
0.032959
0.0491333
0.105896
0.0973511
0.0598145
0.000305176
-0.0531006
-0.0460815
-0.0421143
-0.0827026
-0.145874
-0.0640869
0.0131226
0.107117
0.137939
0.153503
0.12146
0.0604248
-0.0241089
-0.0906372
-0.09552
-0.0537109
-0.0192261
-0.0436401
-0.101318
-0.154419
-0.113831
-0.0338745
0.0900269
0.163879
0.157166
0.101624
0.0268555
-0.0250244
-0.0601196
-0.0283813
0.0115967
-0.0241089
-0.0485229
0.0274658
0.0582886
0.050354
0.0436401
0.0595093
0.101929
0.0973511
0.0439453
0.000915527
-0.0524902
-0.0524902
0.00274658
0.0671387
0.103455
0.0732422
0.0271606
-0.0201416
-0.0756836
-0.10498
-0.022583
0.0509644
0.173035
0.188904
0.0985718
-0.00457764
-0.0915527
-0.0921631
-0.0210571
0.0115967
0.039978
0.0476074
0.0656128
0.0814819
0.0613403
0.0714111
0.093689
0.0662231
-0.0204468
-0.113525
-0.170593
-0.168457
-0.136414
-0.114441
-0.115662
-0.0958252
-0.0881958
-0.0357056
-0.00427246
0.0088501
0.0210571
-0.0210571
-0.0396729
-0.0527954
0.0506592
0.151367
0.178223
0.144958
0.0790405
0.0668335
0.000915527
-0.071106
-0.0958252
-0.0616455
-0.0595093
-0.0436401
0.0286865
0.13916
0.137939
0.0875854
0.0762939
0.0933838
0.0619507
-0.0274658
-0.140381
-0.178528
-0.208435
-0.198975
-0.12146
-0.0170898
0.0579834
0.088501
0.0872803
0.0793457
0.0942993
0.13031
0.187378
0.205383
0.227356
0.224304
0.1828
0.0897217
-0.0497437
-0.162964
-0.177612
-0.115051
-0.0579834
-0.0686646
-0.0640869
-0.0750732
-0.0695801
-0.0628662
-0.0222778
0.0418091
0.0219727
-0.0558472
-0.078125
-0.0445557
-0.0222778
-0.017395
0.0308228
0.140381
0.240173
0.228271
0.13855
0.0558472
-0.0946045
-0.211792
-0.193176
-0.11261
-0.0634766
-0.0256348
0.0375366
0.0875854
0.127869
0.120544
0.083313
0.0662231
0.0112915
-0.03479
-0.0534058
-0.0564575
-0.114746
-0.157471
-0.162354
-0.0527954
0.103455
0.135803
0.0619507
0.0265503
0.0286865
0.0500488
0.0408936
0.0534058
0.0430298
-0.0177002
-0.0930786
-0.141602
-0.0686646
-0.0128174
0.0100708
0.00366211
-0.00579834
0.0473022
0.0820923
0.0762939
0.0802612
0.12207
0.115662
0.0546265
-0.0292969
-0.0756836
-0.0402832
-0.0088501
0.0634766
0.197449
0.271912
0.210266
0.083313
-0.0177002
-0.140991
-0.213013
-0.275574
-0.233459
-0.136719
-0.0564575
0.0326538
0.0708008
0.0308228
0.0320435
0.0650024
0.0244141
-0.0283813
-0.0741577
-0.117798
-0.138245
-0.130005
-0.0915527
-0.0177002
0.0332642
0.124817
0.221558
0.258179
0.231323
0.209045
0.050354
-0.0848389
-0.168762
-0.140991
-0.0631714
0.0149536
0.0558472
0.0531006
0.0146484
-0.0210571
-0.00579834
0.0119019
0.0109863
0.0247192
0.10437
0.0933838
0.0341797
0.0262451
0.0299072
-0.00549316
-0.0283813
-0.0491333
-0.0256348
0.0247192
0.0405884
0.0228882
0.0119019
-0.0360107
-0.0845337
-0.0613403
0.00946045
0.0323486
-0.00274658
0
0.0460815
0.0646973
0.0485229
0.022583
-0.0289917
-0.0164795
0
0.0323486
0.0598145
0.0680542
0.0125122
-0.0796509
-0.12207
-0.116272
-0.0802612
-0.0753784
-0.0796509
-0.0714111
-0.088501
-0.0958252
-0.0430298
0.0863647
0.205688
0.270691
0.188904
0.168762
0.176086
0.09552
-0.00732422
-0.128784
-0.21759
-0.227356
-0.201111
-0.160522
-0.045166
0.0378418
0.101013
0.108948
0.0125122
-0.0241089
-0.0387573
-0.0378418
0.0250244
0.118713
0.155945
0.153503
0.138855
0.0985718
0.0402832
0.10376
0.185242
0.112305
0.0119019
-0.0546265
-0.125427
-0.120239
-0.0671387
-0.0219727
0.00915527
0.0900269
0.135803
0.116577
-0.0180054
-0.191345
-0.311279
-0.385132
-0.349731
-0.244446
-0.115356
0.0521851
0.211792
0.261536
0.227356
0.160217
0.0448608
-0.00244141
0.0201416
-0.0164795
-0.0384521
-0.0134277
0.0137329
0.0292969
0.0445557
0.0518799
0.0262451
0.00183105
0.0314331
0.0125122
0.027771
0.0311279
-0.0274658
-0.0454712
-0.0482178
-0.00762939
0.078125
0.0946045
0.0875854
0.111694
0.15686
0.149231
0.106812
0.166321
0.178223
0.0942993
-0.0564575
-0.200195
-0.270081
-0.207825
-0.126038
-0.0366211
-0.0210571
-0.0494385
-0.00518799
0.0643921
0.0576782
0.0543213
0.0747681
0.1474
0.204468
0.206909
0.159302
0.0839233
-0.120239
-0.278015
-0.30426
-0.224915
-0.13031
-0.0488281
0.0350952
0.168762
0.198975
0.111084
0.0177002
-0.0454712
-0.0579834
-0.0753784
-0.0942993
-0.0595093
-0.00732422
0.0857544
0.132446
0.143433
0.125427
0.0915527
0.0933838
0.0915527
0.0250244
-0.050354
-0.0567627
-0.0842285
-0.0985718
-0.062561
-0.0137329
-0.0265503
-0.0469971
-0.0686646
-0.055542
-0.0424194
-0.0262451
-0.00427246
0.00213623
-0.0646973
-0.0738525
-0.0384521
-0.00549316
0.015564
0.0619507
0.0692749
0.0662231
0.0411987
0.0665283
0.157166
0.212708
0.253601
0.246887
0.166321
0.0680542
-0.0357056
-0.108948
-0.144348
-0.144348
-0.0762939
-0.00366211
-0.0430298
-0.0790405
-0.109558
-0.149536
-0.164185
-0.117188
-0.045166
0.00701904
0.0790405
0.137329
0.127869
0.133667
0.142212
0.141907
0.10376
0.0421143
-0.06073
-0.140686
-0.195312
-0.212402
-0.101624
-0.0302124
0.0445557
0.0598145
0.038147
0.00244141
0.0244141
0.0613403
0.0662231
0.0543213
0.0491333
0.0143433
-0.00640869
0.00183105
-0.0488281
-0.0491333
-0.0552368
-0.0488281
-0.0534058
-0.0622559
-0.0686646
-0.0466919
0.000305176
0.0442505
0.0790405
0.083313
0.126648
0.161133
0.109253
0.0234985
-0.050354
-0.0192261
0.0543213
0.0302124
-0.020752
-0.0421143
-0.106812
-0.134583
-0.134583
-0.0854492
0.00518799
0.088501
0.131836
0.103455
0.0445557
0.0192261
0.038147
0.0396729
-0.0418091
-0.0604248
-0.012207
0.0576782
0.0769043
0.108948
0.122681
0.0656128
-0.0106812
0.0134277
0.0167847
-0.0198364
-0.0509644
-0.0219727
0.00152588
-0.00549316
-0.0418091
-0.0588989
-0.0125122
-0.0088501
-0.0921631
-0.147095
-0.128479
-0.0802612
-0.0280762
0.0787354
0.177002
0.179138
0.163574
0.136719
0.102539
0.0585938
0.00152588
-0.0137329
-0.00823975
0.015564
0.0195312
0.0418091
0.0497437
0.0363159
0.0622559
0.0500488
0.0387573
0.0289917
0.0418091
0.105286
0.176697
0.192261
0.180359
0.11261
-0.0296021
-0.160828
-0.231018
-0.235596
-0.178833
-0.045166
0.0210571
-0.012207
-0.102234
-0.121155
-0.100403
-0.0686646
-0.0344849
0.0125122
0.020752
0.00457764
0.00976562
-0.00396729
-0.0201416
0.0216675
0.0506592
0.0283813
0.039978
0.114136
0.133362
0.0991821
0.0582886
-0.0308228
-0.168762
-0.221863
-0.232239
-0.130615
0.0460815
0.207214
0.240173
0.233459
0.16571
0.0500488
-0.0100708
-0.0256348
-0.0216675
0.0326538
0.0765991
0.112915
0.125732
0.09552
0.0537109
0.0317383
-0.00579834
-0.0485229
-0.0799561
-0.0274658
0.00701904
0.101624
0.213623
0.235901
0.164185
0.0140381
-0.116272
-0.184021
-0.214233
-0.166321
-0.0762939
0.0280762
0.0817871
0.0454712
-0.03479
-0.0872803
-0.111389
-0.109863
-0.0741577
-0.0369263
-0.0253296
-0.015564
-0.0128174
0.00488281
0.0518799
0.151672
0.159302
0.122986
0.0991821
0.108948
0.110474
0.0741577
-0.00366211
-0.0790405
-0.119019
-0.101013
-0.106506
-0.0906372
-0.0592041
-0.0735474
-0.0512695
0.0341797
0.0363159
0
0.0387573
0.126648
0.202026
0.2005
0.0894165
-0.00488281
-0.0845337
-0.154419
-0.162354
-0.110168
-0.0601196
-0.0518799
-0.0299072
-0.0164795
-0.0183105
0.0204468
0.020752
0.0738525
0.15564
0.15564
0.137329
0.118713
0.117188
0.0680542
0.00366211
-0.0714111
-0.109863
-0.09552
-0.0579834
-0.0302124
-0.0366211
-0.0424194
-0.017395
0.00427246
-0.0146484
-0.0137329
0.0222778
0.0662231
0.142822
0.198059
0.187988
0.122375
0.0292969
-0.0881958
-0.179443
-0.156555
-0.0640869
0.0350952
0.200195
0.282898
0.225525
0.0671387
-0.103149
-0.141602
-0.105896
-0.0704956
-0.0695801
-0.0860596
-0.0778198
-0.0421143
-0.0271606
-0.0283813
-0.00488281
-0.0228882
-0.0479126
-0.0598145
-0.0735474
-0.0134277
0.0753784
0.163574
0.209656
0.155945
0.0558472
-0.0219727
-0.0820923
-0.0964355
-0.0601196
-0.0479126
-0.0842285
-0.0946045
-0.0793457
-0.12146
-0.105286
0.00732422
0.128174
0.131226
0.0930786
0.0579834
0.0238037
0.0552368
0.062561
0.0152588
-0.0128174
0.0012207
0.012207
-0.0167847
-0.0588989
-0.0906372
-0.124817
-0.144043
-0.108337
-0.0793457
-0.062561
-0.0558472
-0.0231934
-0.0402832
-0.0250244
0.0442505
0.109253
0.071106
-0.0100708
0.03479
0.119934
0.155029
0.134583
0.0949097
0.0552368
-0.0256348
-0.0463867
-0.0250244
0.00671387
0.0314331
0.078125
0.108948
0.107727
0.0973511
0.0662231
-0.00396729
-0.0802612
-0.133362
-0.158386
-0.162048
-0.144043
-0.0717163
0.0012207
0.109863
0.0692749
0.00640869
-0.0109863
0.0119019
0.0320435
0.0521851
0.00427246
-0.0714111
-0.132141
-0.136719
-0.0390625
0.0750732
0.180359
0.214233
0.192566
0.174866
0.098877
0.0106812
-0.038147
-0.0540161
-0.039978
-0.0558472
-0.0491333
-0.0234985
0.00549316
0.00946045
-0.00213623
0.0289917
0.0305176
-0.0845337
-0.180969
-0.222473
-0.173035
-0.101624
-0.0143433
0.116882
0.183105
0.177917
0.164185
0.126648
0.0289917
-0.0552368
-0.0686646
-0.0592041
-0.06073
-0.038147
0.00976562
0.0311279
0.00244141
0.0338745
0.0790405
0.0799561
0.0534058
0.0335693
0.0286865
0.0274658
-0.0146484
-0.0338745
-0.00793457
0.0183105
0.0772095
0.125732
0.12085
0.0540161
-0.0268555
-0.065918
-0.109863
-0.129089
-0.137329
-0.115662
-0.133972
-0.163269
-0.136414
-0.0650024
0.0213623
0.0982666
0.112915
0.0906372
0.0674438
0.045166
0.0418091
0.0619507
0.0906372
0.09552
0.12146
0.144958
0.102844
0.00183105
-0.0881958
-0.140381
-0.213318
-0.258789
-0.240479
-0.176392
-0.0704956
0.00762939
0.0765991
0.154419
0.176392
0.169983
0.143738
0.0900269
0.0335693
0.0161743
0.0146484
0.0149536
0.012207
0.00732422
0.0518799
0.101013
0.176086
0.197144
0.124512
-0.0579834
-0.179749
-0.149536
-0.0808716
0.0332642
0.115967
0.108948
0.0744629
0.00793457
-0.072937
-0.10498
-0.0881958
-0.0369263
0.0106812
0.0357056
-0.017395
-0.0747681
-0.0735474
-0.0765991
-0.0473022
0.0222778
0.0289917
-0.0210571
-0.0793457
-0.0912476
-0.0869751
-0.043335
0.0183105
0.0946045
0.135193
0.122681
0.0912476
0.085144
0.0375366
0.00366211
0.0137329
0.0143433
-0.0201416
0.0128174
0.0839233
0.0946045
0.140076
0.16449
0.187683
0.169067
0.0808716
-0.0738525
-0.163879
-0.180664
-0.167847
-0.12207
-0.0466919
-0.0128174
-0.045166
-0.0350952
-0.0256348
-0.0311279
-0.0088501
-0.00640869
-0.00579834
-0.0143433
-0.0354004
-0.0100708
-0.0161743
0.010376
0.0341797
0.0808716
0.0869751
0.0213623
-0.0344849
-0.107727
-0.137329
-0.159607
-0.188599
-0.169983
-0.176392
-0.146179
-0.0692749
0.062561
0.247803
0.278931
0.240479
0.187378
0.161743
0.143433
0.112
0.0546265
-0.0460815
-0.0857544
-0.0473022
-0.0537109
-0.0613403
0.00762939
0.10437
0.153809
0.129089
0.0842285
0.015564
-0.0415039
-0.0323486
0.0137329
0.0454712
0.0424194
0.0494385
0.0311279
-0.0527954
-0.108948
-0.0964355
-0.0686646
-0.0149536
0.00823975
-0.0012207
0.012207
0.0158691
-0.0265503
-0.0436401
-0.0241089
-0.0286865
-0.0305176
-0.0244141
-0.00274658
-0.00823975
0.0131226
0.0393677
0.0875854
0.0869751
0.0802612
0.050354
0.0457764
0.0238037
0.0177002
0.00549316
-0.0598145
-0.101929
-0.0476074
0.0805664
0.152283
0.150452
0.0973511
0.0738525
0.0411987
-0.0320435
-0.152893
-0.223389
-0.256042
-0.293884
-0.321045
-0.157166
0.185242
0.405579
0.443726
0.368958
0.197144
0.0100708
-0.09552
-0.164795
-0.200806
-0.133362
-0.0769043
0.0158691
0.118103
0.151367
0.0778198
-0.0686646
-0.158081
-0.16449
-0.112915
-0.0274658
0.0509644
0.0997925
0.0662231
-0.00793457
-0.0411987
-0.0311279
-0.00274658
-0.00701904
0.0296021
0.0344849
0.0671387
0.0750732
0.0582886
0.0292969
-0.012207
-0.0296021
-0.0323486
-0.00946045
-0.0119019
-0.0390625
-0.107422
-0.126038
-0.0744629
-0.0448608
-0.0137329
-0.0259399
-0.00366211
0.0195312
0.0778198
0.114136
0.113525
0.131226
0.139771
0.130615
0.135803
0.138245
0.164185
0.224915
0.221252
0.122375
0.0543213
0.0164795
-0.0750732
-0.113525
-0.143127
-0.187073
-0.20813
-0.238342
-0.226135
-0.167847
-0.0506592
0.0634766
0.150757
0.184631
0.196228
0.194397
0.124207
0.0326538
-0.0564575
-0.108032
-0.176086
-0.233765
-0.223083
-0.115051
0.0228882
0.0561523
0.00854492
0.00610352
0.0332642
0.0524902
0.0582886
0.0527954
0.022583
0.0286865
0.0665283
0.0820923
0.03479
-0.0637817
-0.13092
-0.112915
-0.0918579
-0.0469971
-0.03479
-0.0424194
-0.0588989
-0.0836182
-0.0924683
-0.0982666
-0.0506592
0.0109863
0.0714111
0.119324
0.0927734
0.0149536
-0.015564
-0.00640869
0.0485229
0.0460815
0.015564
0.0732422
0.155945
0.162964
0.195923
0.186462
0.12146
0.0588989
0.0375366
-0.0210571
-0.0860596
-0.111389
-0.00610352
0.055542
0.0228882
0.0204468
0.00946045
-0.015564
-0.0265503
-0.0436401
-0.0799561
-0.0967407
-0.0704956
-0.0219727
-0.0213623
-0.00946045
0.0195312
0.0411987
0.0540161
0.0787354
0.0866699
-0.015564
-0.119019
-0.143127
-0.0997925
-0.0799561
-0.03479
0.0192261
0.0164795
-0.0869751
-0.156555
-0.14801
-0.0900269
-0.00274658
0.10437
0.202637
0.198364
0.0588989
-0.100403
-0.218811
-0.169067
-0.0088501
0.163574
0.214539
0.195007
0.137634
0.0817871
0.00701904
-0.0997925
-0.148315
-0.0769043
0.00701904
0.0521851
0.0582886
0.0918579
0.126038
0.119019
0.0906372
0.107117
0.111084
0.0814819
0.0183105
-0.0509644
-0.0527954
-0.0186157
-0.0222778
-0.0247192
-0.0753784
-0.0656128
-0.103149
-0.162354
-0.174866
-0.122986
-0.0360107
0.032959
0.0595093
0.0576782
0.0500488
0.0317383
0.0442505
0.0891113
0.0747681
0.0457764
0.0378418
0.06073
0.0790405
0.0558472
0.0100708
-0.0323486
-0.0585938
-0.0131226
0.0323486
0.0177002
0.0405884
0.00549316
-0.0814819
-0.166321
-0.213623
-0.155334
-0.0769043
-0.00213623
0.0894165
0.118713
0.0930786
0.045166
-0.0378418
-0.0680542
-0.0811768
-0.00488281
0.0769043
0.0894165
0.0445557
-0.0445557
-0.137634
-0.195618
-0.170898
-0.0650024
0.110779
0.246887
0.341492
0.409851
0.397339
0.331726
0.185242
0.0790405
-0.0326538
-0.127563
-0.172119
-0.153198
-0.110779
-0.116577
-0.155029
-0.152893
-0.0686646
0.0262451
0.0970459
0.102234
0.0601196
0.0540161
0.00701904
0.0387573
0.0354004
0.0622559
0.0491333
0.000305176
-0.050354
-0.0772095
-0.0991821
-0.101624
-0.0653076
-0.0360107
-0.0390625
-0.0149536
0.0411987
0.0357056
-0.0320435
-0.107117
-0.133362
-0.122375
-0.0765991
-0.0479126
0.00488281
0.071106
0.179138
0.263367
0.224304
0.0750732
0.00457764
0.0402832
0.0900269
0.0656128
0.0485229
-0.00793457
-0.123291
-0.0915527
-0.00305176
0.0912476
0.18158
0.220947
0.142517
0.00274658
-0.0640869
-0.0527954
0.0180054
0.0421143
0.0317383
0.00823975
0.00488281
-0.0271606
-0.0750732
-0.123901
-0.124207
-0.145264
-0.132751
-0.101624
-0.117188
-0.0668335
-0.0158691
0.0296021
0.0582886
0.0732422
0.0137329
-0.039978
-0.0442505
-0.03479
-0.0454712
0.00152588
0.0579834
0.0811768
0.0762939
0.039978
0.0390625
0.0753784
0.0891113
0.06073
-0.00610352
-0.0628662
-0.0497437
-0.0198364
-0.00396729
0.03479
0.0906372
0.115356
0.0772095
-0.00152588
0.0216675
0.115356
0.167847
0.177917
0.158081
0.12085
0.0772095
0.0796509
0.015564
-0.0952148
-0.176697
-0.19989
-0.176086
-0.10498
0.00274658
0.0765991
0.0985718
0.0830078
0.0485229
0.0375366
0.0387573
0.0189209
-0.0637817
-0.0598145
-0.0088501
0.0366211
0.06073
0.0305176
-0.0350952
-0.0866699
-0.0921631
-0.0949097
-0.109863
-0.12085
-0.055542
0.0485229
0.115051
0.125427
0.114441
0.0787354
0.0375366
-0.0366211
-0.090332
-0.0799561
-0.0759888
-0.12146
-0.150757
-0.123596
-0.127258
-0.117493
-0.0793457
-0.0128174
0.122681
0.244751
0.279236
0.32196
0.341492
0.310059
0.220642
0.142517
0.0634766
-0.0222778
-0.0692749
-0.107117
-0.0933838
-0.0338745
0.0527954
0.139465
0.155945
0.172729
0.167847
0.0918579
0.0357056
-0.0650024
-0.202637
-0.299072
-0.310974
-0.328369
-0.289917
-0.24231
-0.139465
-0.0637817
0.0341797
0.19165
0.292358
0.278015
0.17334
0.0289917
-0.0421143
-0.119934
-0.175171
-0.163269
-0.0881958
-0.0341797
-0.0717163
-0.118713
-0.183716
-0.222473
-0.16449
-0.0827026
0.0131226
0.136108
0.201416
0.267029
0.316162
0.320129
0.328979
0.310059
0.221252
0.0576782
-0.0973511
-0.136108
-0.135803
-0.0875854
-0.015564
0.057373
0.108643
0.138855
0.131226
0.0582886
0.00579834
-0.0692749
-0.12085
-0.166321
-0.162659
-0.134888
-0.0570679
0.00549316
0.0543213
0.0848389
0.143433
0.185852
0.170898
0.149536
0.0866699
-0.0466919
-0.137634
-0.145569
-0.161743
-0.186157
-0.245667
-0.25177
-0.175476
-0.0860596
-0.0112915
0.0491333
0.0637817
0.0692749
0.0942993
0.102234
0.101929
0.0491333
0.0424194
0.0289917
-0.0549316
-0.0964355
-0.101013
-0.0234985
0.0946045
0.177612
0.190735
0.130615
0.0183105
-0.0527954
-0.0112915
0.0747681
0.194092
0.235291
0.192261
0.0622559
-0.0686646
-0.108948
-0.146179
-0.18219
-0.168457
-0.177307
-0.188293
-0.160828
-0.105286
0.0170898
0.118103
0.177002
0.186462
0.168152
0.108032
0.0344849
-0.0210571
-0.0476074
-0.0234985
-0.0509644
-0.0296021
-0.0839233
-0.057373
-0.0180054
0.0198364
0.0479126
0.0344849
-0.00213623
-0.0366211
-0.0762939
-0.0756836
-0.0540161
-0.0686646
-0.0595093
-0.0387573
0.00427246
-0.0152588
0.0100708
-0.017395
0.0183105
0.0799561
0.13916
0.152283
0.131531
0.0888062
0.0415039
-0.0344849
-0.0344849
-0.0314331
0.0234985
0.102844
0.250854
0.326233
0.311584
0.236206
0.116882
-0.0595093
-0.190125
-0.216675
-0.104675
0.0396729
0.0762939
0.0128174
-0.113831
-0.188904
-0.248413
-0.281982
-0.239258
-0.0939941
0.098877
0.178223
0.158691
0.112915
0.103149
0.122986
0.134888
0.148315
0.177917
0.165405
0.0387573
-0.109253
-0.151367
-0.143433
-0.143127
-0.0662231
-0.00793457
0.00762939
-0.0189209
-0.0595093
-0.038147
0.0286865
0.0738525
0.0326538
-0.0195312
-0.0390625
0.00701904
0.0485229
0.0650024
0.0909424
0.0473022
-0.0128174
-0.108948
-0.0393677
0.0964355
0.181274
0.194397
0.0930786
-0.0396729
-0.102234
-0.11322
-0.134583
-0.130005
-0.100708
-0.088501
-0.0924683
-0.115662
-0.0891113
-0.0463867
-0.0436401
0
0.0234985
0.0558472
0.141602
0.215454
0.139465
-0.00488281
-0.0906372
-0.132446
-0.0796509
-0.0436401
-0.0131226
0.00793457
0.0112915
0.0588989
0.127869
0.166321
0.159302
0.0805664
-0.0158691
-0.062561
-0.0622559
-0.0683594
-0.057373
-0.0338745
-0.0415039
-0.0616455
-0.0671387
0.0424194
0.128479
0.192871
0.195007
0.151367
0.0808716
-0.0112915
0.00946045
0.104675
0.166931
0.174255
0.0769043
-0.088501
-0.202026
-0.247192
-0.228577
-0.179749
-0.116577
-0.0558472
0.102234
0.230408
0.261536
0.263672
0.301514
0.320435
0.261536
0.162964
0.0323486
-0.107422
-0.153809
-0.145264
-0.062561
-0.0228882
-0.0314331
-0.0790405
-0.159302
-0.232544
-0.219421
-0.205994
-0.153503
-0.111084
-0.106506
-0.0958252
-0.0350952
0.0274658
0.150757
0.21637
0.152283
0.0317383
-0.00915527
0.0140381
0.0933838
0.0695801
0.0463867
-0.0125122
-0.112305
-0.181885
-0.186157
-0.166321
-0.128784
-0.0518799
0.022583
0.083313
0.0479126
0.0177002
0.0256348
0.0540161
0.0991821
0.137634
0.227966
0.270386
0.191345
0.093689
0.0314331
-0.0296021
-0.160522
-0.215149
-0.214233
-0.164795
-0.109253
-0.0335693
0.00823975
0.0152588
0.0344849
0.0186157
-0.0259399
-0.0222778
-0.0375366
-0.0439453
-0.0137329
0.0668335
0.107422
0.117188
0.159607
0.142517
0.0909424
0.0405884
0.0430298
0.017395
0.00457764
0.0149536
0.0726318
0.135193
0.170898
0.158997
0.0384521
-0.0927734
-0.167542
-0.150146
-0.0558472
-0.0219727
-0.0152588
-0.0198364
-0.0314331
-0.0143433
0
-0.0421143
-0.0759888
-0.135803
-0.177002
-0.164185
-0.131531
-0.0405884
0.121155
0.220947
0.16571
0.0244141
-0.127563
-0.232544
-0.238342
-0.186768
-0.119629
-0.050354
0.0476074
0.111694
0.231323
0.350037
0.302124
0.200195
0.116577
0.0271606
-0.0765991
-0.0924683
-0.0558472
-0.0125122
0.0189209
0.0506592
0.0686646
0.115662
0.111084
0.0692749
0.0540161
0.0454712
0.0344849
0.00579834
0.00854492
0.0189209
-0.0137329
-0.0439453
-0.0567627
-0.0558472
-0.0869751
-0.0982666
-0.0250244
-0.0332642
-0.0778198
-0.0460815
0.0289917
0.00823975
-0.00427246
0.0143433
0.0289917
0.0177002
-0.0332642
-0.0546265
-0.078125
-0.0958252
-0.0967407
-0.0997925
-0.032959
0.0204468
-0.015564
-0.0518799
-0.0466919
0.0143433
0.0668335
0.128479
0.116882
0.0247192
-0.015564
0.00640869
0.0619507
0.0820923
0.105286
0.136108
0.149841
0.16571
0.116577
0.022583
0.00640869
0.0524902
0.0582886
-0.0146484
-0.126038
-0.204163
-0.239563
-0.209656
-0.140381
-0.00488281
0.13855
0.220032
0.228882
0.201416
0.168457
0.0738525
-0.0372314
-0.139465
-0.142212
-0.071106
-0.0326538
-0.0500488
-0.0164795
0.0622559
0.0839233
0.130615
0.138855
0.114746
-0.00457764
-0.100403
-0.0958252
-0.0726318
-0.0283813
0.0204468
0.0656128
0.0656128
0.0219727
-0.0436401
-0.0741577
-0.0738525
-0.0567627
-0.0201416
0.00549316
0.0167847
0.000915527
0.00579834
0.0192261
0.0323486
0.0509644
0.0259399
-0.038147
-0.093689
-0.143433
-0.154724
-0.050354
0.045166
0.103149
0.169983
0.213013
0.204773
0.163879
0.1297
0.105286
0.071106
0.0506592
0.0326538
0.00610352
-0.0668335
-0.105591
-0.09552
-0.050354
-0.0384521
-0.0527954
-0.0415039
-0.0244141
-0.0308228
-0.0576782
-0.0546265
0.0210571
0.114441
0.135498
0.113831
0.0634766
0
-0.0784302
-0.150452
-0.113831
-0.116272
-0.0634766
0.0549316
0.19928
0.249329
0.210266
0.147705
0.0418091
-0.0384521
-0.0500488
-0.0250244
0.00274658
-0.00183105
-0.0845337
-0.189514
-0.224304
-0.139465
-0.0515747
0.00640869
-0.0296021
-0.136719
-0.1474
-0.0848389
0.0228882
0.15564
0.282288
0.345764
0.295105
0.206604
0.0942993
0.0170898
-0.0164795
-0.0512695
-0.0888062
-0.0854492
-0.0857544
-0.078125
-0.0491333
0.00640869
0.0582886
0.0448608
0.0338745
0.0454712
0.085144
0.0653076
0.00823975
-0.055542
-0.152893
-0.202026
-0.211182
-0.130615
-0.0363159
0.0588989
0.0808716
0.06073
0.0262451
0.0204468
0.0543213
0.0521851
0.0604248
0.0912476
0.0708008
0.0128174
-0.0546265
-0.083313
-0.0466919
-0.0521851
-0.0131226
-0.0354004
-0.101318
-0.112
-0.0860596
-0.010376
0.0360107
-0.020752
-0.0793457
-0.0717163
0.0253296
0.121765
0.152893
0.110779
0.0921631
0.123901
0.22644
0.214233
0.227356
0.213928
0.13855
0.0228882
-0.0686646
-0.0588989
-0.0152588
-0.0192261
-0.0531006
-0.0515747
-0.0531006
-0.0546265
-0.0933838
-0.162048
-0.131531
-0.0430298
0.0308228
0.0808716
0.10437
0.0979614
0.0674438
0.065918
0.0592041
0.0250244
-0.00732422
-0.0561523
-0.071106
-0.0900269
-0.0823975
-0.0524902
0
0.0637817
0.133362
0.135803
0.0521851
-0.00396729
-0.022583
-0.0299072
-0.0186157
0.0332642
0.0515747
-0.0222778
-0.0787354
-0.151367
-0.167236
-0.0991821
-0.0448608
0.00274658
-0.00946045
0.0274658
0.0961304
0.176697
0.21637
0.179138
0.0918579
0.0161743
-0.0918579
-0.133667
-0.0662231
-0.0341797
-0.0863647
-0.136414
-0.107727
-0.0726318
-0.0100708
0.0482178
0.0634766
0.015564
-0.0546265
-0.0784302
-0.0811768
-0.0839233
0.0183105
0.197449
0.259705
0.232849
0.157166
0.101318
0.100098
0.128479
0.142517
0.124207
0.0741577
0.00244141
-0.0588989
-0.0881958
-0.0961304
-0.131531
-0.140381
-0.113831
-0.050354
0.00183105
0.0280762
0.0338745
-0.00549316
-0.0219727
-0.00518799
-0.00579834
-0.0231934
0.00976562
0.0302124
0.0115967
-0.0427246
-0.0723267
-0.0701904
-0.00366211
0.0842285
0.152283
0.161438
0.140991
0.12207
0.0869751
0.0366211
0.0146484
-0.0100708
-0.126648
-0.258179
-0.324707
-0.319214
-0.290833
-0.163879
0.0857544
0.177002
0.117798
0.00793457
-0.0668335
-0.0283813
0.043335
0.127869
0.256042
0.319214
0.301819
0.25177
0.191956
0.153809
0.140076
0.10437
0.0564575
0.0418091
-0.0411987
-0.166626
-0.24292
-0.198059
-0.130615
-0.165405
-0.166016
-0.119324
-0.0973511
-0.0717163
-0.0686646
-0.0515747
-0.0512695
-0.0872803
-0.108337
-0.0930786
-0.103149
-0.0646973
-0.0222778
0.0289917
0.135498
0.146179
0.128784
0.103149
0.0842285
0.0473022
0.0299072
0.0515747
0.0473022
0.045166
0.0390625
0.0363159
-0.0119019
-0.0524902
-0.0430298
0.00488281
0.0982666
0.154114
0.197449
0.202026
0.170593
0.093689
0.0256348
0.00396729
-0.0213623
-0.0531006
-0.0750732
-0.0961304
-0.15686
-0.198364
-0.127258
-0.0204468
0.0616455
0.107117
0.118103
0.0650024
-0.0357056
-0.132446
-0.151367
-0.121155
-0.0228882
0.0283813
0.0457764
0.0204468
0.0335693
0.0363159
-0.00427246
-0.0198364
-0.0195312
-0.0369263
-0.0469971
-0.0616455
-0.0497437
-0.0494385
-0.0253296
-0.0167847
-0.0140381
0.0106812
0.0582886
0.0961304
0.139771
0.155029
0.0769043
-0.0189209
-0.0469971
-0.157776
-0.228577
-0.198669
-0.0839233
0.0619507
0.177307
0.193176
0.172119
0.177002
0.150452
0.123291
0.0704956
0.0170898
-0.045166
-0.127869
-0.090332
0.0540161
0.0570679
0.00488281
0.0177002
0.0524902
0.0646973
0.100403
0.124817
0.0894165
0.0149536
-0.0384521
-0.0479126
-0.0213623
-0.0115967
-0.102539
-0.184631
-0.219421
-0.19104
-0.0958252
0.0531006
0.114136
0.0585938
0.0158691
-0.0164795
-0.017395
-0.039978
-0.0796509
-0.0762939
-0.062561
-0.00274658
0.141602
0.21759
0.193481
0.0875854
0.0354004
0.00915527
-0.0250244
-0.0469971
-0.0436401
-0.0183105
-0.0268555
0.0378418
0.0759888
0.0262451
-0.0332642
-0.057373
-0.0616455
0.000915527
0.0613403
0.112
0.140686
0.140686
0.0894165
0.0183105
-0.0231934
-0.0222778
-0.0436401
-0.0436401
-0.022583
-0.0250244
-0.039978
-0.0335693
-0.027771
-0.0424194
-0.0360107
-0.0350952
-0.0299072
-0.0308228
-0.0323486
-0.0369263
-0.0241089
0.0259399
0.0549316
0.083313
0.0720215
0.0732422
0.0939941
-0.0210571
-0.0747681
-0.0515747
-0.00915527
0.00335693
0.0149536
-0.0592041
-0.0976562
-0.0741577
-0.0296021
0.0485229
0.144958
0.195312
0.148315
0.0921631
0.0753784
0.0402832
-0.0756836
-0.18158
-0.180664
-0.151672
-0.0674438
0.0482178
0.0375366
0.00488281
-0.0186157
-0.125427
-0.183411
-0.137024
-0.071106
0.0344849
0.109253
0.0991821
0.0875854
0.129395
0.171509
0.137024
0.0991821
0.103149
0.123901
0.03479
-0.0354004
-0.057373
-0.0927734
-0.071106
0.0109863
0.0698853
0.133667
0.152283
0.150757
0.116272
0.0524902
0.0366211
0.0387573
0.0177002
-0.00854492
-0.0149536
-0.0613403
-0.117188
-0.0839233
-0.0143433
0.0326538
0.0784302
0.116577
0.160828
0.161743
0.140686
0.071106
-0.00518799
-0.0439453
-0.0485229
-0.0741577
-0.114746
-0.141602
-0.133972
-0.123596
-0.141296
-0.15686
-0.153198
-0.0354004
0.0653076
0.115967
0.177002
0.173035
0.112915
0.0445557
0.0286865
0.072937
0.0561523
0.0119019
-0.0268555
0.0149536
0.0775146
0.103149
0.0845337
0.0704956
0.0619507
0.0558472
0.00671387
0
-0.00427246
0.012207
0.0131226
-0.0296021
-0.0753784
-0.107117
-0.150146
-0.173645
-0.140686
-0.0805664
-0.062561
-0.0115967
0.0717163
0.100403
0.109253
0.0790405
0.0762939
0.115051
0.123901
0.0674438
-0.0177002
-0.116882
-0.187073
-0.201721
-0.20874
-0.176086
-0.128174
-0.12207
-0.137939
-0.101318
0.0170898
0.112305
0.114136
0.116882
0.143738
0.126343
0.158081
0.209045
0.202332
0.185242
0.151367
0.107117
0.038147
-0.045166
-0.114746
-0.164185
-0.166931
-0.0344849
0.0982666
0.131531
0.178528
0.177612
0.174866
0.132751
0.0320435
-0.102844
-0.20813
-0.292358
-0.26886
-0.198059
-0.0827026
-0.00274658
0.000305176
-0.055542
-0.093689
-0.0689697
0.0363159
0.196228
0.3125
0.242004
0.1297
-0.0384521
-0.142822
-0.165405
-0.0942993
-0.00793457
0.114136
0.273132
0.301819
0.216064
0.0741577
0.00854492
-0.0238037
-0.0427246
-0.0640869
-0.0750732
-0.085144
-0.0509644
-0.050354
-0.0189209
-0.0241089
0.0115967
0.0460815
0.078125
0.0320435
-0.0393677
-0.0830078
-0.0967407
-0.0888062
-0.0363159
0.0674438
0.125122
0.135193
0.115051
0.0320435
-0.0012207
0.00823975
-0.0183105
-0.0564575
-0.0650024
-0.0692749
-0.0320435
0.067749
0.161133
0.208435
0.14801
0.0656128
-0.0149536
-0.102844
-0.168762
-0.193176
-0.145569
-0.0405884
0.00183105
-0.0219727
-0.0332642
-0.0634766
-0.071106
-0.0796509
-0.0640869
-0.0653076
-0.0213623
0.0512695
0.0753784
0.109863
0.122681
0.083313
-0.0146484
-0.0830078
-0.130615
-0.12207
-0.0756836
-0.0332642
-0.00457764
0.038147
0.062561
0.0967407
0.0411987
-0.020752
-0.0158691
0.0442505
0.0445557
0.0265503
0.0366211
0.0588989
0.0839233
0.0692749
0.0704956
0.107117
0.14679
0.124207
0.0646973
0.0177002
-0.0439453
-0.121765
-0.235901
-0.267334
-0.210876
-0.128174
-0.0378418
0.0177002
0.0256348
0.0128174
0.0759888
0.134888
0.141602
0.138245
0.0759888
-0.00518799
-0.0180054
0.0311279
0.0704956
0.0872803
0.0854492
0.0930786
0.0933838
0.0497437
-0.0357056
-0.0805664
-0.0994873
-0.1297
-0.116272
-0.0686646
-0.0732422
-0.0643921
0.0204468
0.100098
0.0979614
0.0628662
-0.00915527
-0.0897217
-0.163879
-0.183716
-0.128174
0.000305176
0.11261
0.160828
0.137329
0.110168
0.067749
0.0247192
-0.020752
-0.0723267
-0.0643921
-0.0305176
0.0183105
0.0793457
0.112305
0.126953
0.0906372
0.0247192
0.0167847
0.0344849
0.010376
-0.0274658
-0.0259399
-0.00457764
-0.0231934
0.0146484
0.0521851
0.0473022
0.0549316
0.105896
0.180969
0.229797
0.154724
0.0146484
-0.113831
-0.209045
-0.297241
-0.233459
-0.14679
-0.0088501
0.138245
0.230103
0.235901
0.171509
0.0653076
-0.0787354
-0.213928
-0.246582
-0.176086
-0.119324
-0.0665283
-0.0198364
0.0369263
0.0500488
-0.00946045
-0.0628662
-0.0897217
-0.0747681
0.0106812
0.0479126
0.0732422
0.0897217
0.0494385
0.0494385
0.0326538
0.0268555
-0.022583
-0.0726318
-0.135498
-0.167542
-0.175781
-0.109558
0.0888062
0.303345
0.377808
0.302124
0.225525
0.159912
0.0881958
0.0350952
0.0366211
0.00823975
-0.0234985
-0.0390625
-0.0369263
-0.00183105
-0.0119019
-0.0363159
-0.0424194
0.043335
0.159302
0.185242
0.134583
0.0808716
0.0262451
-0.0570679
-0.0942993
-0.143127
-0.169678
-0.127258
-0.119629
-0.0949097
-0.0619507
-0.0634766
-0.0354004
0.0109863
0.00549316
-0.0305176
-0.0283813
-0.0262451
-0.0198364
-0.0387573
-0.0601196
-0.0827026
-0.13031
-0.191956
-0.153503
-0.0286865
0.0860596
0.0808716
0.0616455
0.0259399
0.0219727
-0.0363159
-0.0558472
-0.0112915
0.0332642
0.133667
0.212402
0.259399
0.241699
0.192261
0.136108
0.0845337
0.0393677
0.0476074
0.0888062
0.0411987
-0.0497437
-0.108948
-0.0979614
-0.0695801
-0.00610352
-0.00213623
-0.0558472
-0.0140381
0.0137329
0.0222778
0.043335
0.00244141
-0.0817871
-0.179138
-0.282898
-0.281982
-0.23407
-0.166321
-0.0830078
0.0784302
0.203247
0.270386
0.242615
0.184021
0.0897217
0.0149536
0.0253296
0.0653076
0.0479126
-0.0137329
-0.0576782
-0.126953
-0.224915
-0.259094
-0.184326
-0.0720215
0.00305176
0.0604248
0.167542
0.274353
0.314636
0.2005
0.06073
-0.09552
-0.192566
-0.221558
-0.195618
-0.101624
-0.0308228
0.109558
0.193176
0.203857
0.170898
0.17334
0.167847
0.169373
0.140076
0.107117
0.0256348
-0.0906372
-0.105286
-0.0125122
0.0973511
0.180664
0.135498
0.0939941
0.0289917
0
0.000915527
0.00152588
-0.0161743
0.00457764
-0.00274658
-0.0817871
-0.157776
-0.167236
-0.172729
-0.19043
-0.206604
-0.19165
-0.14679
-0.0460815
0.0848389
0.177307
0.179443
0.105286
0.0393677
-0.0668335
-0.168762
-0.150452
-0.0906372
-0.0460815
0.0189209
0.0350952
-0.00701904
-0.0170898
-0.0167847
-0.00457764
0.0308228
0.109863
0.139465
0.106506
0.0894165
0.093689
0.0982666
0.0991821
0.0335693
0.0131226
0
-0.00579834
0.0192261
0.0582886
0.0357056
0.00396729
0
0.0143433
0.0265503
0.0918579
0.218201
0.258484
0.225525
0.220947
0.191956
0.131836
-0.00488281
-0.177917
-0.294189
-0.287781
-0.220947
-0.0680542
0.00305176
-0.0115967
-0.0411987
-0.0476074
-0.0665283
-0.0476074
-0.0402832
0.00762939
0.0439453
0.0628662
0.0308228
-0.0143433
-0.0473022
-0.0701904
-0.101013
-0.122986
-0.0320435
0.0985718
0.140381
0.144958
0.072937
-0.0442505
-0.13092
-0.132141
-0.0234985
0.0775146
0.0256348
-0.0442505
-0.00335693
-0.0177002
-0.020752
0.0360107
0.0732422
0.090332
0.0744629
0.0186157
-0.022583
-0.06073
-0.0537109
-0.0415039
-0.0198364
0.0390625
0.135498
0.184021
0.219727
0.233459
0.163879
0.0546265
-0.0268555
-0.062561
-0.0842285
-0.043335
0.0210571
0.0875854
0.149536
0.159912
0.0961304
-0.0418091
-0.129089
-0.128174
-0.09552
-0.0869751
-0.0900269
-0.104065
-0.107727
-0.114136
-0.110779
-0.085144
-0.0671387
-0.0939941
-0.155334
-0.14679
-0.0527954
0.0125122
0.0665283
0.153198
0.201721
0.140381
0.0857544
0.0393677
-0.00396729
-0.0140381
0.062561
0.150757
0.102844
0.00488281
-0.0494385
-0.127258
-0.139771
-0.118713
-0.0689697
-0.0158691
0.00946045
0.0216675
0.0445557
0.0317383
0.0564575
0.0900269
0.109863
0.133667
0.116577
0.0872803
0.055542
-0.00610352
-0.072937
-0.0756836
0.00549316
0.0958252
0.115662
0.0994873
0.0592041
-0.0234985
-0.106201
-0.128174
-0.126343
-0.0454712
0.0650024
0.135498
0.133667
0.126038
0.111084
0.00946045
-0.0686646
-0.0888062
-0.122986
-0.122681
-0.121155
-0.105591
-0.0308228
0.0637817
0.147095
0.175476
0.16571
0.101013
0.0247192
-0.039978
-0.0933838
-0.0888062
-0.0637817
-0.0604248
-0.093689
-0.138245
-0.141602
-0.0845337
0.0256348
0.0991821
0.140991
0.16449
0.127258
0.0405884
-0.0497437
-0.0570679
-0.072937
-0.151367
-0.194397
-0.137634
-0.0970459
-0.0524902
0.0427246
0.15686
0.209961
0.197449
0.150146
0.113525
0.0881958
0.149536
0.200806
0.243225
0.270386
0.185242
0.0979614
0.00823975
-0.0448608
-0.126038
-0.218201
-0.224304
-0.174866
-0.122986
-0.0720215
-0.0430298
0.00732422
0.0735474
0.0769043
0.072937
0.0650024
-0.00213623
-0.185852
-0.319214
-0.318909
-0.295715
-0.183105
-0.0540161
-0.0332642
-0.00366211
-0.00823975
-0.0216675
-0.0332642
-0.015564
0.06073
0.115662
0.085144
0.0527954
0.0772095
0.0942993
0.115662
0.177307
0.195007
0.170898
0.110168
0.0314331
-0.0234985
-0.0567627
-0.0469971
-0.0210571
0.0161743
0.0830078
0.142822
0.141907
0.104675
0.0796509
0.0430298
0.0473022
0.0430298
0.0567627
0.0842285
0.0863647
0.0762939
0.00823975
-0.045166
-0.155029
-0.162659
-0.0927734
-0.0234985
0.022583
0.0656128
0.126343
0.142822
0.10437
0.0537109
-0.0488281
-0.166321
-0.209351
-0.190735
-0.164185
-0.15625
-0.11261
-0.0372314
0.038147
0.0585938
0.0997925
0.12146
0.0979614
0.0616455
0.0320435
0.00396729
-0.0363159
-0.0421143
-0.0393677
-0.0552368
-0.0671387
-0.0875854
-0.0259399
0.0384521
0.137939
0.170898
0.13031
0.0582886
-0.0350952
-0.072937
-0.0622559
-0.0393677
-0.0796509
-0.09552
-0.101013
-0.0686646
-0.00579834
0.083313
0.184021
0.178528
0.127563
0.0820923
-0.03479
-0.0540161
0.0128174
0.0738525
0.105286
0.0860596
0.0628662
0
-0.0088501
-0.0112915
0.00396729
0.015564
0.0250244
-0.0271606
-0.112915
-0.167236
-0.158081
-0.0692749
-0.0198364
0.0402832
0.0796509
0.0875854
0.0564575
0.0314331
-0.00793457
0.0134277
0.0445557
0.0308228
-0.0183105
-0.0479126
-0.0338745
-0.00793457
0.0265503
0.129089
0.194702
0.188293
0.0723267
-0.0204468
-0.115051
-0.214233
-0.22644
-0.184631
-0.136719
-0.0637817
-0.0244141
-0.0469971
-0.0564575
0.0588989
0.187073
0.222473
0.175171
0.19165
0.19928
0.126953
-0.020752
-0.110168
-0.108032
-0.0393677
-0.0180054
-0.0323486
-0.0357056
0.0106812
0.0714111
0.155945
0.238342
0.304565
0.328979
0.296326
0.133972
-0.108948
-0.21637
-0.212097
-0.190125
-0.143738
-0.12085
-0.120239
-0.127869
-0.163269
-0.18219
-0.102539
0.0250244
0.128479
0.144043
0.108337
-0.010376
-0.0924683
-0.0634766
0.00671387
0.0872803
0.106506
0.0570679
-0.0338745
-0.100708
-0.168152
-0.237427
-0.279541
-0.298767
-0.202942
-0.105286
0.0192261
0.15686
0.195923
0.153503
0.102234
0.062561
0.103455
0.163269
0.170288
0.136108
0.078125
0.00671387
0.0216675
0.1474
0.245361
0.304871
0.319519
0.244446
0.111389
-0.0460815
-0.110474
-0.179443
-0.190735
-0.129089
-0.0759888
-0.0424194
0.00640869
0.0427246
0.00244141
-0.0415039
-0.0830078
-0.114746
-0.132751
-0.112
-0.0894165
-0.0714111
-0.0650024
-0.0540161
-0.0564575
-0.0820923
-0.0610352
-0.0180054
0.0140381
0.039978
0.0100708
-0.0521851
-0.039978
-0.101929
-0.142517
-0.11261
-0.0408936
-0.0341797
0.015564
0.015564
0.0158691
0.0494385
0.0991821
0.153503
0.194397
0.229187
0.249023
0.215759
0.124817
0.050354
0.015564
0.0189209
0.0775146
0.177612
0.2771
0.309448
0.162659
-0.0119019
-0.146179
-0.148621
-0.175476
-0.151978
-0.132751
-0.0888062
-0.0723267
-0.0918579
-0.101624
-0.0692749
-0.0244141
-0.0491333
-0.0485229
-0.0524902
-0.119934
-0.098877
-0.0515747
-0.00640869
0.0741577
0.140076
0.143127
0.110779
0.0598145
-0.0183105
-0.0259399
0.0146484
0.083313
0.0918579
0.102844
0.0967407
0.0134277
-0.0845337
-0.117493
-0.103455
-0.0375366
0.0973511
0.126038
0.0393677
-0.00244141
0.0314331
0.043335
0.0515747
0.104675
0.155945
0.0723267
-0.0088501
0.0152588
-0.00915527
-0.039978
-0.0415039
-0.0558472
-0.071106
-0.0827026
-0.0811768
-0.088501
-0.0170898
-0.00518799
0.0234985
0.0723267
0.109253
0.0662231
-0.0204468
-0.0695801
-0.0415039
-0.045166
0.0100708
0.0881958
0.100403
0.130615
0.127563
0.00244141
-0.09552
-0.12146
-0.108948
-0.0323486
0.0521851
0.0912476
0.111084
0.101929
0.0482178
0.0360107
0.0421143
0.0128174
-0.100708
-0.13092
-0.09552
-0.0686646
-0.0479126
-0.0357056
0.00396729
0.0485229
0.0793457
0.130005
0.154724
0.103455
0.0479126
-0.017395
-0.0674438
-0.0939941
-0.129089
-0.150452
-0.106812
0.017395
0.149841
0.208435
0.222778
0.137634
0.0582886
-0.0524902
-0.16449
-0.168152
-0.106812
-0.0280762
0.0152588
0.0769043
0.123291
0.107727
0.0802612
-0.0161743
-0.0946045
-0.105286
-0.0997925
-0.0473022
0.015564
0.0308228
0.0314331
0.032959
0
-0.0128174
-0.0915527
-0.178223
-0.160828
-0.0506592
0.103455
0.236206
0.228882
0.149231
0.0778198
0.0354004
0.0177002
0.0112915
-0.0344849
-0.0830078
-0.115051
-0.144653
-0.163574
-0.103455
-0.0146484
0.0991821
0.182495
0.110779
0.0158691
-0.0265503
-0.00640869
0.0512695
0.0772095
0.0857544
0.0524902
0.0308228
0.0366211
0.017395
-0.022583
-0.0680542
-0.050354
-0.0354004
0.00213623
0.0286865
0.0668335
0.142517
0.169373
0.171814
0.137024
0.050354
-0.00671387
-0.0271606
-0.107117
-0.135498
-0.108032
-0.119934
-0.0836182
-0.0869751
-0.0180054
0.0473022
0.00976562
-0.00946045
-0.0753784
-0.128479
-0.156555
-0.0491333
0.0860596
0.138245
0.142517
0.148926
0.14679
0.144958
0.106812
0.0717163
0.0497437
0.0311279
0.00549316
-0.0405884
-0.0219727
0.0222778
0.0717163
0.0839233
0.0735474
0.0549316
0.00823975
-0.0457764
-0.0979614
-0.18219
-0.252686
-0.200806
-0.0952148
0.0115967
0.135803
0.164185
0.124207
0.0805664
0.0515747
0.0418091
0.022583
-0.00762939
-0.0354004
-0.0674438
-0.104675
-0.169983
-0.198975
-0.178833
-0.201416
-0.185852
-0.1297
-0.0753784
-0.0231934
0.123291
0.303955
0.423889
0.386658
0.262756
0.143738
0.00915527
-0.111084
-0.141296
-0.111389
-0.0634766
-0.0549316
-0.0552368
-0.0289917
0.0241089
0.065918
0.0894165
0.0997925
0.10498
0.127563
0.174866
0.192871
0.124512
0.0473022
-0.00915527
-0.093689
-0.123291
-0.0830078
-0.0741577
-0.0686646
-0.0610352
-0.022583
-0.00457764
0.0192261
0.0405884
-0.0265503
-0.0952148
-0.151367
-0.156555
-0.11261
0.00457764
0.120239
0.16571
0.18158
0.145264
0.00244141
-0.160217
-0.184326
-0.132446
-0.0827026
0.0012207
0.0552368
0.0262451
0.00366211
0.00244141
0.00183105
-0.0268555
-0.09552
-0.123291
-0.0942993
-0.0326538
-0.0405884
0.0469971
0.0680542
0.108337
0.145264
0.141296
0.0634766
0.015564
-0.0228882
-0.0527954
-0.0405884
0.00579834
0.0924683
0.133057
0.0946045
0.0820923
0.0808716
0.071106
0.0140381
-0.043335
-0.0872803
-0.128479
-0.0488281
-0.00732422
-0.0820923
-0.125122
-0.101929
-0.0436401
-0.0497437
-0.0314331
0.0115967
0.0866699
0.126343
0.137634
0.15564
0.142822
0.0952148
0.0286865
-0.0482178
-0.106506
-0.168762
-0.123291
-0.0305176
0.0244141
0.0326538
0.0418091
0.0753784
0.0717163
-0.03479
-0.163879
-0.183716
-0.174866
-0.125427
-0.0540161
-0.0289917
-0.0747681
-0.0897217
-0.0631714
-0.0137329
0.0680542
0.127869
0.151367
0.136719
0.11261
0.0540161
0.0619507
0.140076
0.263977
0.31189
0.292664
0.236206
0.113831
-0.0448608
-0.179749
-0.169067
-0.0650024
-0.00457764
0.0100708
0.00579834
-0.022583
-0.0967407
-0.152588
-0.170898
-0.0802612
-0.020752
0
0.0543213
0.0640869
0.0119019
-0.0354004
-0.0692749
-0.0567627
-0.0234985
0.0112915
0.0680542
0.147095
0.116272
0.0643921
-0.0552368
-0.134888
-0.126953
-0.114441
-0.0888062
-0.00976562
0.0869751
0.108337
0.110168
0.0747681
0.0234985
-0.043335
-0.111389
-0.117493
-0.0930786
-0.00488281
0.0622559
0.101013
0.116577
0.15564
0.237732
0.248108
0.131226
-0.0366211
-0.187988
-0.247498
-0.223999
-0.143433
-0.0671387
0.010376
0.0912476
0.0973511
0.0540161
-0.00274658
-0.0875854
-0.131836
-0.0668335
0.0213623
0.0231934
-0.00244141
0.00579834
0.0521851
0.0436401
0.0631714
0.107727
0.180969
0.166931
0.108337
0.0619507
-0.0170898
-0.0811768
-0.071106
-0.0292969
0.0241089
0
0
-0.0372314
-0.0805664
-0.050354
-0.0088501
-0.0222778
-0.0231934
-0.0405884
-0.0790405
-0.0875854
-0.0515747
-0.0170898
0.0479126
0.0875854
0.0839233
0.114441
0.142212
0.126343
0.120239
0.102844
0.0534058
0.00274658
-0.032959
-0.0198364
0.010376
0.0326538
0.0695801
0.0952148
0.0460815
-0.0241089
-0.0811768
-0.105286
-0.0750732
-0.0384521
-0.00274658
0.0192261
0.0744629
-0.00671387
-0.0909424
-0.105896
-0.0598145
-0.0427246
-0.0704956
-0.116577
-0.0497437
0.0302124
0.116882
0.193481
0.171814
0.123291
0.0512695
0.03479
0.0790405
0.0878906
0.0756836
-0.00305176
-0.083313
-0.111084
-0.117493
-0.109253
-0.0762939
0.000305176
0.0512695
0.0668335
0.0457764
-0.0143433
-0.0817871
-0.152893
-0.153503
-0.0613403
0.0912476
0.115051
0.0704956
0.0106812
-0.0405884
-0.0222778
0.0012207
0.0473022
0.0985718
0.112915
0.116882
0.117493
0.124207
0.133057
0.128479
0.118408
0.088501
0.0668335
0.0689697
-0.0106812
-0.156555
-0.217285
-0.214844
-0.194397
-0.15686
-0.151062
-0.119934
-0.0259399
0.0485229
0.0735474
0.0692749
0.0958252
0.106201
0.0402832
0.015564
-0.00335693
0.0177002
0.00701904
-0.0457764
-0.0997925
-0.118408
-0.184326
-0.185547
-0.150146
-0.0613403
0.0234985
0.100708
0.158081
0.142517
0.0817871
0.0238037
0.0134277
0.0512695
0.105286
0.13031
0.102539
0.125122
0.106812
0.0491333
-0.0109863
-0.0445557
-0.00823975
0
-0.0088501
-0.0241089
-0.0613403
-0.0640869
-0.0219727
0.121765
0.239868
0.20813
0.124207
0.0213623
-0.111694
-0.170288
-0.142517
-0.0976562
-0.0546265
-0.0387573
-0.0521851
0.0109863
-0.00427246
-0.0393677
-0.0228882
-0.017395
-0.0189209
-0.0143433
-0.0296021
0.0149536
0.101929
0.138855
0.115356
0.0411987
-0.0686646
-0.0613403
-0.0198364
0.0119019
0.0253296
-0.00671387
-0.0143433
0.00946045
0.00579834
0.0408936
0.0778198
0.0537109
0.0424194
0.0402832
0.0158691
-0.0469971
-0.062561
-0.062561
-0.0552368
0.0146484
0.0378418
0.0213623
0.0302124
-0.00793457
-0.0473022
-0.11322
-0.123291
-0.12085
-0.0830078
-0.0463867
-0.0164795
0.00579834
-0.00640869
0
0.0271606
0.0668335
0.113525
0.166321
0.128784
0.137939
0.154114
0.144043
0.0814819
0.0457764
-0.0192261
-0.0482178
-0.0485229
-0.06073
-0.0518799
-0.020752
-0.0259399
0
0.0436401
0.104675
0.0897217
0.0772095
0.0772095
0.09552
0.155029
0.206909
0.204773
0.0875854
0.00640869
-0.088501
-0.187683
-0.210266
-0.138245
-0.0588989
-0.010376
0.0323486
0.0894165
0.0921631
0.0387573
-0.0238037
-0.0839233
-0.127869
-0.171204
-0.194397
-0.14679
-0.0897217
-0.0418091
0.0384521
0.102234
0.101013
0.0360107
0.0152588
-0.0149536
-0.0744629
-0.12085
-0.173035
-0.181274
-0.130005
-0.0280762
0.098877
0.146179
0.123291
0.0619507
0.038147
0.0686646
0.0946045
0.114441
0.172729
0.161743
0.114441
0.0769043
0.0332642
0.0302124
0.0402832
-0.0100708
-0.0323486
-0.0436401
-0.0485229
-0.0479126
-0.0415039
0
0.0140381
0.00946045
0.0280762
0.0601196
0.0735474
0.0741577
-0.0189209
-0.137329
-0.224304
-0.203857
-0.0894165
0.0439453
0.122375
0.112915
0.0839233
0.0518799
0.0543213
0.0390625
0.00854492
0.000915527
0.0439453
0.0646973
0.000305176
-0.0308228
-0.0180054
0.015564
0.0393677
0.0125122
-0.0335693
-0.0164795
0.0161743
0.107117
0.111084
0.027771
0.0125122
0.0125122
0.0100708
-0.0384521
-0.100708
-0.120544
-0.0915527
-0.0100708
0.0439453
0.0344849
0.020752
0.0448608
0.0967407
0.124207
0.126648
0.118713
0.0930786
0.0418091
-0.0119019
-0.0622559
-0.0863647
-0.0744629
-0.0726318
-0.131531
-0.149841
-0.131531
-0.0640869
0.0189209
0.0717163
0.0982666
0.141907
0.236816
0.25238
0.202332
0.189819
0.14801
0.098877
0.0421143
0.0244141
-0.0500488
-0.118408
-0.194702
-0.26001
-0.267639
-0.227661
-0.187988
-0.143738
-0.0836182
-0.0363159
0.000305176
0.00701904
0.0305176
0.0289917
0.0323486
0.0183105
0.0521851
0.0848389
0.032959
-0.0198364
-0.0314331
-0.0152588
0.0247192
0.0436401
0.0167847
0.0360107
0.0680542
0.0582886
0.0512695
0.0875854
0.121155
0.129089
0.106506
0.0415039
0
-0.020752
-0.0549316
-0.0650024
-0.0161743
0.0338745
0.00671387
-0.0259399
-0.0164795
-0.015564
-0.0131226
0.0595093
0.117493
0.163574
0.227661
0.299072
0.293579
0.263062
0.167236
0.0695801
-0.0863647
-0.302429
-0.386353
-0.337219
-0.308228
-0.332336
-0.251465
-0.161438
-0.0927734
0.00335693
0.141602
0.218506
0.227966
0.194397
0.104675
0.0326538
-0.00701904
-0.0650024
-0.109253
-0.116272
-0.085144
-0.0222778
0.00213623
0.00640869
0.0732422
0.109253
0.109253
0.0680542
0.0100708
0.00671387
0.0369263
0.0186157
0.00976562
0.0195312
0.0344849
0.0662231
0.0592041
0.0680542
0.101318
0.0350952
-0.032959
-0.00305176
0.0305176
-0.00457764
-0.00823975
0.0146484
0.0543213
0.0491333
0.00701904
-0.00244141
0.0192261
0.00152588
-0.0430298
-0.125427
-0.19165
-0.21759
-0.1651
-0.0427246
0.0994873
0.147705
0.137329
0.0421143
-0.0708008
-0.153503
-0.150757
-0.0454712
0.06073
0.105286
0.0744629
0.0717163
0.0509644
0.0146484
-0.0195312
0.00335693
0.0997925
0.163879
0.157776
0.109558
0.0500488
0
-0.00518799
-0.0369263
-0.0543213
-0.0680542
-0.0527954
-0.0363159
0.00427246
0.0289917
0.105591
0.179749
0.1651
0.0775146
0.0231934
-0.0283813
-0.050354
-0.0387573
-0.0289917
-0.0839233
-0.166321
-0.21759
-0.188599
-0.123291
-0.0125122
0.137939
0.231628
0.287476
0.256653
0.129089
0
-0.0964355
-0.141296
-0.0979614
-0.0396729
-0.038147
-0.0430298
-0.0534058
-0.0509644
-0.0772095
-0.11322
-0.125732
-0.112305
-0.0915527
-0.065918
0.0146484
0.10498
0.120544
0.106812
0.0946045
0.0918579
0.0601196
0.0366211
0.0119019
-0.0152588
-0.0427246
-0.0579834
-0.0244141
0.0119019
0.039978
0.0473022
0.0238037
0.022583
0.0177002
0.0479126
0.0967407
0.101624
0.0308228
-0.0717163
-0.102234
-0.0717163
0.0280762
0.0622559
0.022583
-0.00244141
-0.0161743
0.00335693
0.0662231
0.118408
0.0445557
-0.0534058
-0.127258
-0.222473
-0.242615
-0.121765
0.0369263
0.0985718
0.133972
0.166931
0.155334
0.0897217
0.0775146
0.100098
0.0485229
-0.00335693
-0.0234985
-0.0109863
-0.00152588
0.0216675
-0.0241089
-0.0665283
-0.0421143
-0.0112915
-0.00274658
-0.0521851
-0.0897217
-0.0543213
-0.00610352
-0.000915527
0.0408936
0.114136
0.140076
0.0820923
0.0222778
0.0149536
0.0418091
0.0683594
0.0323486
-0.0112915
-0.0772095
-0.105896
-0.09552
-0.0164795
0.0415039
0.0723267
0.118713
0.132751
0.116577
0.093689
0.0369263
-0.0296021
-0.0808716
-0.131226
-0.176697
-0.142212
-0.106506
-0.125427
-0.14679
-0.209961
-0.248718
-0.250549
-0.167236
-0.0817871
-0.0646973
0.0231934
0.137634
0.193787
0.204773
0.189819
0.168152
0.173035
0.133362
0.0997925
0.0854492
0.110168
0.155945
0.146484
0.12207
0.118103
0.104675
0.0012207
-0.0942993
-0.0830078
-0.0326538
-0.0378418
-0.0256348
0.0332642
-0.00396729
-0.0650024
-0.0442505
-0.0439453
-0.0982666
-0.153198
-0.213928
-0.227356
-0.206604
-0.131836
-0.00274658
0.141602
0.236206
0.242615
0.231934
0.198059
0.18158
0.135498
0.0778198
0.0482178
0.0488281
-0.015564
-0.0427246
-0.00213623
0.0149536
-0.0192261
-0.117798
-0.211487
-0.242004
-0.25238
-0.258484
-0.228577
-0.168762
-0.0756836
0.0668335
0.20874
0.258484
0.228577
0.17395
0.12085
0.118408
0.0921631
0.0335693
-0.0234985
-0.00915527
0.0241089
0.102844
0.161438
0.159607
0.115051
0.0946045
0.0213623
-0.126038
-0.205994
-0.207214
-0.218506
-0.189819
-0.110474
-0.0613403
-0.0256348
-0.0384521
-0.0125122
0.105896
0.186462
0.183105
0.171204
0.0875854
0.0408936
0.0265503
0
0.0643921
0.135498
0.131836
0.0717163
-0.010376
-0.101624
-0.145874
-0.0979614
-0.114441
-0.13855
-0.135193
-0.0817871
-0.0210571
-0.00396729
0.0375366
0.0854492
0.0930786
0.133362
0.171204
0.185242
0.204773
0.188904
0.153503
0.111389
0.0949097
0.121765
0.105286
0.0485229
-0.0473022
-0.152283
-0.20752
-0.19989
-0.165405
-0.110474
-0.0299072
0.0546265
0.0537109
0.0119019
-0.0396729
-0.166016
-0.271301
-0.332947
-0.330811
-0.299988
-0.190735
-0.022583
0.154724
0.214233
0.254822
0.32196
0.306396
0.209045
0.0796509
0.0216675
-0.0216675
-0.00640869
0.0527954
0.0723267
0.0796509
0.10437
0.109253
0.0790405
0.0250244
0.000915527
-0.00213623
-0.0112915
-0.0201416
-0.0360107
-0.022583
0.0119019
0.0112915
-0.0216675
-0.101624
-0.1297
-0.107117
-0.062561
-0.03479
-0.0192261
-0.0317383
-0.0344849
-0.0643921
-0.0750732
-0.0820923
-0.00305176
0.0784302
0.112915
0.0708008
0.015564
-0.039978
-0.114136
-0.160522
-0.126343
-0.0863647
-0.0671387
-0.0244141
0.112915
0.213318
0.221252
0.158386
0.120239
0.0601196
-0.0177002
-0.0772095
-0.0344849
-0.0161743
0.0436401
0.10376
0.139771
0.1474
0.116577
0.0610352
0.0775146
0.152283
0.256348
0.300598
0.220337
0.0152588
-0.198669
-0.312805
-0.317993
-0.252075
-0.220947
-0.209351
-0.18158
-0.156555
-0.136719
-0.148315
-0.121155
-0.0769043
-0.0466919
0.00579834
0.0723267
0.123901
0.151367
0.166931
0.204468
0.228271
0.190735
0.1474
0.0958252
0.0167847
-0.0799561
-0.154419
-0.135498
-0.0765991
-0.0100708
0.027771
0.0637817
0.119019
0.140991
0.144653
0.168762
0.18219
0.136108
0.0848389
0.0390625
0.0387573
0.0338745
0.0164795
-0.0561523
-0.165405
-0.281372
-0.351257
-0.351868
-0.198975
0.0601196
0.291138
0.429688
0.413513
0.302124
0.13092
-0.057373
-0.164795
-0.213318
-0.233765
-0.166321
-0.0790405
0.0344849
0.083313
0.0808716
0.0839233
0.062561
0.0305176
0.00183105
-0.0466919
-0.0131226
0.062561
0.0460815
-0.0259399
-0.0341797
-0.0302124
-0.0640869
-0.0527954
0.0231934
0.0668335
0.0640869
0.00915527
-0.0125122
-0.0177002
0.000610352
-0.0137329
-0.00366211
0.0427246
0.0985718
0.071106
0.125732
0.167847
0.161438
0.123596
0.0814819
0.0323486
-0.0402832
-0.142822
-0.221252
-0.227356
-0.193787
-0.14679
-0.0796509
-0.0402832
-0.0439453
-0.133667
-0.211487
-0.248108
-0.238037
-0.088501
0.118408
0.211487
0.292053
0.292664
0.234375
0.155945
0.112915
0.0274658
-0.0784302
-0.0888062
0.0210571
0.116272
0.109558
0.0534058
-0.0561523
-0.146484
-0.175171
-0.120239
-0.0198364
0.0408936
0.0509644
0.038147
0.012207
0.00457764
0.0411987
0.123901
0.191345
0.261536
0.296021
0.262756
0.19043
0.110779
0.045166
-0.0897217
-0.241394
-0.346375
-0.345459
-0.253601
-0.16449
-0.0537109
0.0241089
0.114746
0.151672
0.126343
0.0463867
0
-0.00274658
0.0115967
0.0363159
0.0650024
0.123291
0.148315
0.136414
0.0921631
0.0323486
0.0119019
-0.0561523
-0.109558
-0.166321
-0.164185
-0.132446
-0.0741577
-0.0271606
-0.00183105
0.0317383
0.0695801
0.0927734
0.171509
0.185242
0.0906372
0.0149536
0.00488281
0.0308228
0.0485229
0.0460815
-0.015564
-0.105896
-0.127258
-0.0830078
-0.0463867
-0.00976562
-0.00640869
0
0.0140381
0.0640869
0.119324
0.141602
0.0842285
0.0137329
-0.015564
-0.0549316
-0.0524902
0.000915527
0.0421143
0.0332642
-0.00549316
-0.038147
-0.0683594
-0.109558
-0.156555
-0.178223
-0.183411
-0.153198
-0.083313
-0.0256348
0.00244141
0.0692749
0.105591
0.143738
0.143127
0.195007
0.230408
0.213318
0.239868
0.204773
0.0973511
0.00946045
-0.020752
-0.0320435
-0.0765991
-0.107117
-0.115356
-0.138245
-0.133057
-0.103149
-0.0698853
-0.0576782
-0.0576782
-0.0714111
-0.0363159
0.0143433
0.0509644
0.0802612
0.105591
0.106812
0.0857544
0.0262451
-0.00762939
-0.0564575
-0.0778198
-0.0341797
0.00457764
-0.0408936
-0.122375
-0.143433
-0.126648
-0.0604248
-0.0137329
0.0418091
0.0119019
-0.0234985
-0.0305176
-0.0158691
-0.0289917
-0.0137329
-0.00244141
-0.0149536
0.0378418
0.1297
0.147095
0.199585
0.256348
0.258789
0.254517
0.179138
0.0604248
-0.0549316
-0.132446
-0.142517
-0.11261
-0.0323486
-0.012207
-0.0494385
-0.155334
-0.198364
-0.19928
-0.133667
-0.0430298
-0.0198364
-0.00518799
0.0363159
0.111084
0.198669
0.216675
0.212708
0.160217
0.115051
0.133057
0.112915
0.0289917
-0.072937
-0.138855
-0.139465
-0.103149
-0.0933838
-0.0305176
0.0332642
0.0210571
0.00518799
-0.0186157
-0.0650024
-0.134888
-0.151672
-0.144043
-0.152893
-0.118103
-0.0430298
0.00854492
0.00946045
0.0469971
0.0900269
0.106506
0.0668335
0.0344849
-0.0201416
-0.0234985
0.0497437
0.0881958
0.157166
0.204773
0.195312
0.134888
0.0549316
-0.0128174
-0.0405884
-0.0634766
-0.0354004
0.0253296
0.0708008
0.0863647
0.0616455
0.0463867
-0.0088501
-0.062561
-0.0970459
-0.144653
-0.135498
-0.088501
-0.0592041
-0.0772095
-0.10376
-0.090332
-0.0338745
0.0595093
0.0958252
0.10376
0.0735474
0.116882
0.200195
0.21637
0.198669
0.162048
0.0735474
-0.0100708
-0.06073
-0.0390625
0
0.00457764
-0.022583
-0.0918579
-0.0952148
-0.09552
-0.0595093
-0.0192261
0.0485229
0.0634766
0.0524902
0.0177002
-0.0274658
-0.0546265
-0.0476074
-0.032959
-0.0491333
-0.0140381
0.015564
0.0521851
0.0689697
0.0588989
0.0234985
-0.0314331
-0.0491333
-0.017395
0.0140381
0.0619507
0.062561
0.0939941
0.119629
0.114441
0.0750732
0.0302124
-0.0253296
-0.065918
-0.0570679
-0.0466919
-0.0808716
-0.101624
-0.0827026
-0.0262451
-0.0177002
0.0192261
0.0482178
-0.00762939
-0.0942993
-0.130615
-0.118103
-0.0576782
0.0454712
0.166931
0.16571
0.0741577
-0.012207
0
0.0561523
0.150146
0.172119
0.0476074
-0.055542
-0.104065
-0.13092
-0.135498
-0.107727
-0.110168
-0.108337
-0.101318
-0.0613403
-0.045166
-0.0686646
-0.0732422
-0.0228882
-0.00854492
0.027771
0.0704956
0.122375
0.137329
0.134277
0.114441
0.0723267
0.039978
0.0973511
0.187378
0.231628
0.224304
0.189209
0.162048
0.107727
0.0543213
-0.0527954
-0.120544
-0.128784
-0.110779
-0.106201
-0.110168
-0.0582886
0.0140381
0.0598145
0.0631714
0.0454712
-0.0454712
-0.181885
-0.259399
-0.239258
-0.126648
-0.012207
0.0427246
0.109863
0.140381
0.118408
0.0534058
0.0195312
-0.0201416
-0.0198364
0.0183105
-0.00396729
-0.0613403
-0.102539
-0.156555
-0.103149
0.0247192
0.108337
0.190735
0.207214
0.144348
0.0167847
-0.0784302
-0.11322
-0.108032
-0.0772095
-0.0531006
-0.0680542
-0.119934
-0.098877
-0.0271606
0.0784302
0.188904
0.224609
0.309448
0.362854
0.333557
0.227051
0.138855
0.0985718
0.0088501
-0.132446
-0.179749
-0.184326
-0.180054
-0.171509
-0.120544
-0.0704956
-0.0723267
-0.090332
-0.185852
-0.223083
-0.215454
-0.170898
-0.104065
-0.0415039
-0.0466919
-0.0405884
-0.0164795
-0.00305176
0.0164795
-0.00793457
-0.0628662
-0.010376
0.0668335
0.0674438
0.0814819
0.085144
0.0949097
0.132141
0.161438
0.145264
0.10437
0.0643921
0.0320435
0.0457764
0.0701904
0.098877
0.0970459
0.0744629
0.0537109
0.0665283
0.104065
0.184631
0.233154
0.193787
0.10376
0.00823975
-0.032959
-0.062561
-0.0808716
-0.102234
-0.11261
-0.115967
-0.101318
-0.0744629
-0.0466919
-0.0195312
0.0244141
0.0222778
-0.0454712
-0.106506
-0.185852
-0.246277
-0.230408
-0.160217
-0.0643921
0.0634766
0.13916
0.158081
0.149536
0.172119
0.221863
0.218201
0.171814
0.135803
0.0875854
0.0216675
-0.0656128
-0.1297
-0.148621
-0.127258
-0.104065
-0.0952148
-0.0787354
-0.0439453
0.0405884
0.155945
0.253601
0.246277
0.166931
0.0604248
-0.06073
-0.138245
-0.154114
-0.105286
-0.0396729
0
0.00396729
0.0247192
0.0708008
0.088501
0.0726318
0.0216675
-0.0405884
-0.112
-0.150452
-0.119934
-0.0195312
0.0579834
0.0100708
-0.0231934
0.0265503
0.0817871
0.127258
0.175476
0.187988
0.148621
0.0387573
-0.0820923
-0.130615
-0.154419
-0.144043
-0.112305
-0.109558
-0.166931
-0.172424
-0.127258
-0.0616455
-0.010376
0.043335
0.128174
0.155334
0.171509
0.170898
0.137024
0.0271606
-0.0439453
-0.101013
-0.0949097
-0.0250244
0.0192261
0.0695801
0.159302
0.227966
0.202332
0.102844
0.0445557
0.0012207
-0.0582886
-0.0927734
-0.104065
-0.119324
-0.0830078
-0.039978
0.0210571
0.0848389
0.140686
0.172119
0.170593
0.123596
0.0787354
-0.0323486
-0.116882
-0.106506
-0.0341797
-0.0088501
-0.0296021
-0.0537109
-0.0357056
-0.0241089
-0.0662231
-0.0692749
-0.0244141
-0.00335693
0.0146484
0.0274658
0.0540161
-0.0167847
-0.104675
-0.14679
-0.125122
-0.0402832
0.0180054
0.0201416
0.0424194
0.0704956
0.0537109
0.0753784
0.0738525
0.0802612
0.0488281
-0.0143433
-0.090332
-0.127258
-0.144043
-0.101929
-0.0198364
0.0515747
0.0598145
0.0735474
0.112305
0.163269
0.201416
0.180664
0.185852
0.227966
0.236511
0.21637
0.188599
0.0888062
-0.0515747
-0.169067
-0.220642
-0.193481
-0.118408
-0.0549316
-0.0393677
-0.0216675
-0.0296021
-0.0521851
-0.0894165
-0.112
-0.0863647
-0.0442505
-0.0506592
-0.0543213
-0.0466919
-0.0131226
0.0341797
0.0354004
0.0628662
0.0497437
0.00518799
-0.0942993
-0.155334
-0.203857
-0.189819
-0.138855
-0.124817
-0.0817871
0.00915527
0.144043
0.254822
0.310364
0.308228
0.244751
0.102539
-0.0228882
-0.0643921
-0.0720215
-0.0552368
-0.022583
0.0201416
0.0570679
0.11322
0.197449
0.122986
0.050354
0.0732422
0.0720215
0.0494385
0.0485229
0.00915527
-0.0845337
-0.185852
-0.190735
-0.100403
-0.00549316
0.0485229
0.0994873
0.0961304
0.0289917
0.00915527
0.0369263
0.0192261
-0.0134277
-0.0784302
-0.110168
-0.168152
-0.131531
-0.0372314
0.0378418
0.0619507
0.0427246
-0.038147
-0.122681
-0.205383
-0.173645
-0.101624
-0.0222778
0.0231934
0.0360107
0.093689
0.122375
0.141296
0.129089
0.136414
0.0393677
-0.0909424
-0.130615
-0.093689
-0.0466919
0.000915527
0.0558472
0.09552
0.0921631
0.0579834
0.00946045
-0.0262451
-0.0506592
-0.0894165
-0.107727
-0.0485229
0.0231934
0.115662
0.159912
0.184937
0.151672
0.0732422
0.0177002
0.00823975
0.0540161
0.0994873
0.124817
0.113831
0.0418091
-0.0338745
-0.0894165
-0.122375
-0.102844
-0.106812
-0.101624
-0.0759888
-0.0192261
-0.0125122
0.00488281
-0.00854492
0.0012207
0.0137329
0.000915527
-0.0268555
-0.0259399
-0.0692749
-0.144348
-0.158386
-0.0842285
0.0134277
0.0735474
0.0765991
0.0411987
-0.0354004
-0.0372314
0.0588989
0.191956
0.221863
0.176392
0.12085
0.0424194
0.0268555
0.0177002
-0.00915527
-0.0878906
-0.16449
-0.170593
-0.0570679
0.0753784
0.0848389
0.0527954
-0.017395
-0.0344849
-0.0537109
-0.0894165
-0.0982666
-0.0738525
-0.0634766
-0.0143433
0.0863647
0.187988
0.215759
0.13092
0.0564575
-0.0323486
-0.164795
-0.242004
-0.220947
-0.166321
-0.062561
0.00335693
0.0332642
0.0619507
0.0997925
0.132751
0.115662
0.0949097
0.1297
0.138245
0.067749
-0.0128174
-0.0476074
-0.102539
-0.140686
-0.137329
-0.0888062
-0.0109863
0.106506
0.256348
0.31189
0.256348
0.133362
0.00579834
-0.0906372
-0.13092
-0.112915
-0.0646973
-0.0112915
0.015564
0.0558472
0.119934
0.115356
0.0701904
0.0280762
-0.0250244
-0.0604248
-0.0280762
-0.00946045
-0.00152588
-0.0436401
-0.0979614
-0.130005
-0.128479
-0.0393677
0.0588989
0.124817
0.112305
0.0894165
0.0320435
0.0183105
0.0375366
0.0506592
0.0875854
0.132141
0.101624
0.050354
-0.0543213
-0.154114
-0.15686
-0.163269
-0.219421
-0.196533
-0.14679
-0.0674438
0.0372314
0.157166
0.218811
0.203552
0.154114
0.0930786
0.0735474
0.0384521
0.0390625
0.0735474
0.118103
0.125122
0.0494385
-0.0735474
-0.161743
-0.162964
-0.150452
-0.0808716
0
0.0265503
0.0479126
0.0610352
0.0482178
0.0167847
-0.0100708
-0.00701904
0.00274658
0.0326538
0.0442505
0.088501
0.0823975
0.0479126
0.00640869
0.00946045
0.00549316
-0.0308228
-0.0375366
-0.038147
-0.0802612
-0.133362
-0.13092
-0.171204
-0.166626
-0.0970459
-0.00274658
0.141296
0.206604
0.187988
0.107117
0.00640869
-0.0543213
-0.0857544
-0.0445557
0.0198364
0.0772095
0.118103
0.093689
0.0128174
-0.0289917
-0.0393677
-0.00732422
0.0119019
0.0302124
0.0494385
0.0299072
0.0238037
-0.017395
-0.0274658
0.0134277
0.071106
0.115662
0.140076
0.154724
0.110168
0.00274658
-0.0735474
-0.0662231
-0.0485229
-0.022583
-0.00793457
-0.0704956
-0.0979614
-0.115967
-0.0894165
-0.0698853
-0.0546265
-0.0143433
0.00701904
-0.0354004
-0.038147
-0.0088501
-0.00976562
-0.0418091
-0.0784302
-0.0860596
-0.0128174
0.0448608
0.0393677
0.0350952
0.0289917
0.0140381
0.0228882
0.0289917
0.0619507
0.101013
0.111389
0.130615
0.144958
0.111389
0.108948
0.135803
0.0897217
0.0448608
0.0692749
0.0875854
0.0210571
-0.0427246
-0.00213623
0.105591
0.177002
0.145569
0.0744629
-0.0540161
-0.159607
-0.210876
-0.183105
-0.143127
-0.0827026
-0.0268555
0.000305176
0.0137329
-0.00335693
-0.0357056
-0.09552
-0.132446
-0.144958
-0.112915
-0.0549316
-0.00183105
0.0457764
0.0430298
0.0198364
0.00213623
-0.0210571
-0.0500488
-0.105896
-0.072937
-0.00671387
0.0540161
0.0595093
0.0238037
-0.0366211
-0.0680542
-0.0686646
-0.017395
0.0128174
0.0695801
0.0979614
0.116882
0.162964
0.166321
0.157776
0.158386
0.203552
0.265808
0.302429
0.285645
0.166626
0.0408936
-0.115051
-0.238342
-0.227661
-0.140076
-0.0662231
-0.0836182
-0.147095
-0.116577
-0.0326538
-0.00640869
-0.0415039
-0.0909424
-0.093689
-0.0900269
-0.0543213
-0.017395
0.00946045
-0.00610352
0.012207
0.0662231
0.101013
0.062561
0.0177002
-0.039978
-0.072937
-0.0790405
-0.0802612
-0.0588989
-0.038147
-0.0100708
0.020752
0.00976562
-0.0289917
-0.050354
-0.0686646
-0.0164795
0.0735474
0.18158
0.282898
0.272217
0.197449
0.0839233
0.00396729
-0.0387573
0.0119019
0.0973511
0.114746
0.115967
0.121765
0.105286
0.0448608
-0.0210571
-0.0619507
-0.0979614
-0.0979614
-0.0845337
-0.045166
0.0259399
0.0619507
0.0131226
-0.0366211
-0.113831
-0.181274
-0.149536
-0.0753784
0.0231934
0.140991
0.209961
0.124512
0.0317383
-0.0112915
-0.0183105
-0.0881958
-0.158691
-0.179749
-0.150452
-0.098877
-0.0592041
-0.0375366
-0.0515747
-0.0668335
-0.0238037
0.0473022
0.0897217
0.0808716
0.00213623
0.0982666
0.115051
0.114441
0.0778198
0.055542
0.0720215
0.106506
0.0540161
-0.0384521
-0.116882
-0.152588
-0.144653
-0.0750732
-0.0149536
0.0372314
0.10498
0.178223
0.19043
0.158081
0.115967
0.0610352
0.0286865
0.0714111
0.0778198
0.072937
0.0271606
-0.0637817
-0.15625
-0.135498
-0.0372314
0.0311279
0.0460815
-0.0134277
-0.0869751
-0.114441
-0.101929
-0.0579834
-0.0521851
0.00579834
0.065918
0.0857544
0.0244141
-0.0546265
-0.0366211
-0.00610352
-0.0222778
-0.0430298
-0.0363159
0.0164795
0.0515747
0.0656128
0.0848389
0.0683594
0.0680542
0.062561
0.0445557
0.022583
-0.0283813
-0.114136
-0.202942
-0.221252
-0.123291
0.00610352
0.0775146
0.0653076
0.0296021
-0.0396729
-0.125427
-0.180359
-0.169067
-0.126038
-0.0506592
0.0457764
0.136414
0.149841
0.185242
0.23407
0.198669
0.155334
0.0976562
0.032959
-0.0265503
-0.0421143
-0.0454712
-0.00488281
0.0537109
0.0680542
0.0418091
0.038147
0.0134277
-0.0387573
-0.0476074
0.0137329
0.106201
0.204773
0.249634
0.227356
0.188293
0.0402832
-0.127869
-0.184937
-0.152893
-0.103455
-0.0701904
-0.0759888
-0.0784302
-0.123596
-0.237427
-0.262756
-0.150452
0.00152588
0.112305
0.111084
0.057373
0.0213623
0.0119019
0.0561523
0.045166
0.0402832
0.0698853
0.0827026
0.158386
0.23468
0.219116
0.0637817
-0.09552
-0.162964
-0.141907
-0.06073
0.0405884
0.088501
0.0756836
0.022583
-0.0430298
-0.162354
-0.220642
-0.214844
-0.154724
-0.109863
-0.0344849
0.0460815
0.0427246
0.0131226
0.0302124
0.0167847
-0.00396729
-0.0100708
0.00854492
0.104065
0.231934
0.307007
0.308533
0.336914
0.263367
0.148621
0.0509644
0
-0.00854492
-0.0201416
-0.0360107
-0.0497437
-0.085144
-0.133667
-0.192566
-0.211182
-0.160522
-0.0915527
-0.015564
-0.00244141
0.00671387
0.0357056
0.067749
0.072937
0.0152588
-0.0320435
-0.0775146
-0.170898
-0.241699
-0.145874
0.0231934
0.177307
0.292053
0.315857
0.249939
0.0439453
-0.168762
-0.198364
-0.105286
-0.0213623
0.0244141
0.0674438
0.0720215
0.00610352
-0.0595093
-0.157776
-0.209961
-0.191956
-0.102844
-0.0271606
0.0497437
0.131226
0.186462
0.198669
0.156555
0.0582886
-0.0430298
-0.0842285
-0.117493
-0.135193
-0.0845337
-0.0314331
-0.0186157
0.0369263
0.131836
0.184326
0.214233
0.25116
0.213928
0.136108
0.0604248
-0.0421143
-0.137939
-0.149231
-0.167542
-0.0949097
-0.0512695
-0.0588989
-0.0588989
-0.0564575
-0.0265503
0.00396729
0.0506592
0.0735474
0.126343
0.183105
0.180054
0.155945
0.11322
0.085144
0.0701904
0.0442505
-0.0546265
-0.15686
-0.160217
-0.0552368
-0.0369263
-0.0515747
-0.0473022
-0.0466919
-0.0576782
-0.0930786
-0.153503
-0.163269
-0.160828
-0.0964355
-0.0408936
0.0289917
0.0842285
0.0875854
0.0613403
0.0588989
0.0674438
0.0750732
0.0875854
0.0765991
0.0631714
0.0894165
0.0839233
0.0628662
0.0628662
0.118408
0.141296
0.207214
0.207214
0.144653
-0.00213623
-0.119629
-0.125122
-0.139465
-0.150452
-0.162354
-0.161133
-0.157471
-0.0982666
-0.043335
0.0384521
0.0909424
0.0634766
0.010376
-0.043335
-0.0311279
-0.0167847
-0.00793457
-0.050354
-0.055542
-0.0421143
0.00549316
0.0823975
0.118103
0.101013
0.072937
0.0698853
0.0524902
0.0778198
0.0805664
0.0588989
0.039978
-0.00640869
-0.0802612
-0.146484
-0.213318
-0.178833
-0.155029
-0.0509644
0.0558472
0.0863647
0.0314331
-0.0250244
-0.0579834
-0.0506592
-0.0305176
0.0137329
0.0540161
0.0604248
0.0558472
0.0314331
-0.0775146
-0.15625
-0.160522
-0.119934
-0.0363159
0.0387573
0.098877
0.160217
0.158997
0.162354
0.0796509
0.00946045
-0.0167847
0.0253296
0.118408
0.228882
0.270386
0.209351
0.111084
0.00305176
-0.112305
-0.177917
-0.158691
-0.115051
-0.0924683
-0.0527954
-0.0112915
-0.0350952
-0.131836
-0.168457
-0.154419
-0.140686
-0.0891113
-0.0234985
0.0448608
0.0942993
0.107727
0.107422
0.141907
0.143433
0.151367
0.165405
0.162964
0.138855
0.0790405
0.0631714
0.0411987
0.0814819
0.157471
0.191345
0.138245
0.0747681
0.0231934
-0.0442505
-0.0982666
-0.0643921
-0.0317383
-0.109863
-0.16449
-0.21637
-0.261536
-0.185852
-0.0839233
0
0.078125
0.151367
0.185242
0.172729
0.171204
0.142212
0.142517
0.127869
0.112
0.10437
0.0421143
-0.0588989
-0.137024
-0.111084
-0.0613403
-0.0546265
-0.0927734
-0.0793457
-0.0820923
-0.0991821
-0.108643
-0.102234
-0.0817871
-0.0588989
-0.038147
-0.0106812
0.0366211
0.071106
0.101624
0.214539
0.258789
0.228271
0.15564
0.0457764
-0.0588989
-0.124512
-0.157471
-0.161743
-0.13916
-0.103149
-0.0811768
-0.0552368
-0.0650024
-0.0131226
0.0558472
0.0918579
0.0497437
0.012207
0.0198364
0.0164795
0.0335693
0.0991821
0.152893
0.176392
0.144958
-0.0241089
-0.156555
-0.157166
-0.117493
-0.0335693
0.174255
0.344543
0.386658
0.32959
0.1828
0.00793457
-0.134583
-0.214844
-0.215149
-0.169678
-0.147705
-0.114746
-0.088501
-0.0396729
0.017395
0.0723267
0.0827026
0.0219727
-0.0274658
-0.0119019
0.000915527
0.0234985
-0.00915527
-0.119019
-0.177917
-0.198975
-0.148621
-0.0543213
-0.0100708
0.0244141
0.0576782
0.0393677
-0.0140381
-0.055542
-0.0354004
0.0137329
0.0222778
0.0466919
0.0848389
0.0482178
0.0354004
0.0479126
0.130615
0.166321
0.163269
0.0854492
-0.038147
-0.122375
-0.168762
-0.132141
-0.0689697
-0.03479
0.0170898
0.136414
0.196533
0.19165
0.192566
0.171509
0.093689
0.0131226
-0.0408936
-0.0686646
-0.0460815
0.0219727
0.0692749
0.0527954
0.0167847
-0.0344849
-0.115051
-0.164185
-0.105896
0.0149536
0.015564
0.0262451
0.0192261
-0.00213623
-0.0354004
-0.0372314
-0.0402832
-0.0350952
-0.0418091
-0.0302124
-0.0106812
0.00549316
0.0137329
0.0167847
0.015564
0.0149536
0.00549316
-0.0100708
-0.0128174
-0.0244141
-0.0515747
-0.0796509
-0.0881958
-0.105286
-0.114136
-0.0790405
-0.045166
0.0131226
0.0732422
0.106812
0.140076
0.17395
0.185242
0.169983
0.154419
0.154114
0.0680542
-0.0448608
-0.09552
-0.116882
-0.115356
-0.1474
-0.152588
-0.0976562
0.00457764
0.0891113
0.137024
0.117188
0.0698853
0.0457764
0.0384521
0.0726318
0.0946045
0.142517
0.168152
0.148315
0.0738525
-0.0131226
-0.108337
-0.19165
-0.203247
-0.0863647
0.0152588
0.144958
0.291443
0.337219
0.288696
0.162048
0.00457764
-0.143738
-0.229797
-0.26825
-0.245056
-0.134888
-0.0424194
-0.0485229
-0.0717163
-0.0579834
-0.0430298
-0.0332642
-0.0311279
-0.0543213
-0.109253
-0.157776
-0.159912
-0.133362
-0.0500488
0.122986
0.203552
0.214539
0.162048
0.157471
0.142822
0.062561
-0.00457764
-0.0341797
-0.0161743
-0.0457764
-0.0750732
-0.0595093
0.00427246
0.0714111
0.107117
0.127563
0.110474
0.0811768
0.0485229
0.0302124
-0.0143433
-0.06073
-0.0894165
-0.0735474
0.00427246
0.139771
0.218811
0.248413
0.240479
0.1651
-0.00976562
-0.124817
-0.17395
-0.0930786
-0.00488281
0.0506592
0.0335693
-0.0631714
-0.159302
-0.228577
-0.212097
-0.141907
-0.0253296
0.0848389
0.112
0.0485229
-0.0427246
-0.0357056
0.0350952
0.0497437
0.0302124
0.0164795
-0.0317383
-0.12146
-0.17334
-0.15564
-0.126038
-0.0753784
-0.00976562
0.0817871
0.0823975
0.0311279
-0.0476074
-0.0894165
-0.0479126
0.0576782
0.125122
0.177002
0.211792
0.204773
0.17334
0.148926
0.098877
0.0479126
0.00640869
-0.0570679
-0.110168
-0.0390625
0.0942993
0.224609
0.297852
0.299683
0.168152
-0.0112915
-0.19928
-0.24353
-0.195007
-0.100403
-0.0100708
0.0820923
0.0653076
0.0167847
-0.0619507
-0.119934
-0.184631
-0.195923
-0.114746
0.0485229
0.188904
0.234985
0.254211
0.171814
0.032959
-0.0436401
-0.0708008
-0.0759888
-0.0967407
-0.148621
-0.174866
-0.137024
-0.101318
-0.101624
-0.0970459
-0.124817
-0.13092
-0.0900269
0.0167847
0.137939
0.115356
0.0848389
0.0598145
0.0125122
-0.0216675
-0.0448608
-0.0332642
-0.0180054
-0.00396729
0
0.045166
0.113525
0.148315
0.149231
0.0820923
0.0531006
0.0253296
0.00427246
-0.0161743
0.0320435
0.0402832
0.00671387
-0.062561
-0.00305176
0.104065
0.179443
0.189209
0.164795
0.0961304
-0.0292969
-0.155945
-0.206909
-0.158386
-0.032959
0.0320435
0.00946045
-0.00366211
-0.0601196
-0.144653
-0.170898
-0.0405884
0.0924683
0.169067
0.183105
0.195007
0.198975
0.0820923
-0.00366211
-0.0527954
-0.0811768
-0.0814819
-0.0811768
-0.0765991
-0.103455
-0.135498
-0.133362
-0.12085
-0.0982666
-0.0274658
-0.00305176
-0.0115967
0.0201416
0.0509644
0.0732422
0.0921631
0.0402832
-0.0942993
-0.172119
-0.208435
-0.138855
-0.0405884
0.09552
0.240784
0.253906
0.201416
0.119324
0.0268555
-0.0283813
-0.0765991
-0.0567627
0.00335693
0.0448608
0.0463867
0.0457764
0.0662231
0.0515747
0.0350952
0.0296021
0.0613403
0.0891113
0.115051
0.120544
0.104675
0.00610352
-0.0738525
-0.0811768
-0.06073
0.0192261
0.0613403
0.0656128
0.0289917
-0.0686646
-0.121155
-0.150146
-0.15686
-0.1651
-0.180664
-0.169373
-0.187378
-0.162354
-0.0836182
0.0344849
0.128784
0.19043
0.275269
0.290222
0.229797
0.150757
0.0204468
-0.102234
-0.179749
-0.184631
-0.144653
-0.104675
-0.0790405
-0.0823975
-0.00457764
0.0897217
0.0997925
0.105286
0.149536
0.137329
0.101013
0.121765
0.159607
0.203552
0.20813
0.13855
0.0125122
-0.100708
-0.160217
-0.166931
-0.118103
-0.0640869
-0.0378418
-0.0396729
-0.0408936
-0.0283813
0.00396729
0.032959
-0.00640869
-0.0970459
-0.162048
-0.161133
-0.0387573
0.0723267
0.17395
0.184021
0.133972
0.0909424
0.0280762
-0.0411987
-0.134583
-0.196838
-0.183716
-0.115967
-0.0576782
0.017395
0.111389
0.145874
0.136414
0.0521851
-0.038147
-0.13031
-0.150757
-0.122986
-0.0668335
-0.0140381
0.00396729
0.0228882
0.0430298
0.0601196
0.0595093
0.0704956
0.112305
0.144348
0.112
0.0689697
0.03479
-0.00640869
-0.00274658
0.101318
0.126648
0.198669
0.299683
0.36499
0.332947
0.20752
0.0167847
-0.160522
-0.255432
-0.209961
-0.116272
-0.0158691
-0.0106812
-0.0375366
-0.0808716
-0.0222778
0.0369263
-0.0369263
-0.108337
-0.152588
-0.183716
-0.184631
-0.149536
-0.0967407
-0.0778198
-0.0515747
0
0.0549316
0.0473022
0.00305176
-0.00457764
-0.0238037
-0.0970459
-0.1651
-0.173035
-0.166931
-0.13092
0.0491333
0.192261
0.281982
0.293579
0.240479
0.13855
0.0302124
-0.0753784
-0.133667
-0.139771
-0.0793457
0.0360107
0.109253
0.151062
0.159607
0.158386
0.137939
0.111084
0.100708
0.0201416
-0.0180054
-0.0100708
0.0350952
0.0845337
0.0875854
0.0967407
0.108948
0.124207
0.11322
0.0717163
0.0811768
0.0579834
0.0296021
0.0134277
0.00823975
0.00518799
-0.00396729
-0.039978
-0.0738525
-0.105591
-0.105286
-0.0619507
-0.0402832
-0.0125122
0.0262451
0.043335
0.0469971
0.015564
-0.0814819
-0.166931
-0.176086
-0.137634
-0.104065
-0.0958252
-0.0982666
-0.0906372
-0.0863647
-0.0454712
0.0204468
0.119324
0.207214
0.263367
0.210876
0.0778198
-0.0671387
-0.129089
-0.162659
-0.169373
-0.0930786
0.0540161
0.178833
0.207825
0.108032
0.0424194
0.00549316
0.027771
0.0445557
0.0180054
-0.0256348
-0.039978
-0.0527954
-0.0656128
-0.0469971
-0.0088501
0.03479
0.0283813
0.0158691
0.0466919
0.102234
0.116272
0.0708008
-0.0244141
-0.102539
-0.1828
-0.186462
-0.114746
-0.00396729
0.108948
0.162964
0.130005
0.072937
0.000305176
-0.0643921
-0.0231934
0.0164795
0.0274658
0.0152588
-0.0320435
-0.0817871
-0.0939941
-0.0314331
0.0228882
0.124512
0.209656
0.20752
0.179138
0.0973511
0.0231934
-0.0289917
-0.0695801
-0.0714111
-0.0527954
-0.0265503
-0.0405884
-0.0421143
-0.0457764
0.0109863
0.0448608
0.0582886
0.0393677
0.015564
-0.00762939
-0.0360107
-0.0390625
-0.0369263
-0.00305176
0.0219727
-0.00640869
-0.0320435
-0.0350952
0.00946045
0.0564575
0.117188
0.118408
0.12085
0.0817871
0.0396729
0.0296021
-0.0161743
-0.170898
-0.292664
-0.274963
-0.105286
0.0857544
0.153503
0.123291
0.116882
0.125732
0.151367
0.169678
0.12085
0.0521851
0.0213623
0.015564
-0.0320435
-0.0335693
-0.00976562
-0.012207
-0.00244141
-0.0158691
0.00854492
0.0439453
0.0814819
0.100708
0.0561523
0.0106812
-0.055542
-0.112
-0.130615
-0.124817
-0.093689
-0.0875854
-0.0894165
-0.108337
-0.0863647
-0.0418091
-0.0115967
-0.017395
-0.0149536
-0.045166
-0.0595093
-0.0390625
-0.0244141
0.0213623
0.0836182
0.0753784
0.0543213
0.0863647
0.126038
0.135193
0.110168
0.0881958
0.0357056
0.00213623
0.0238037
0.062561
0.0177002
0.0134277
0.0375366
0.0390625
0.0604248
0.0860596
0.0924683
0.0720215
0.0515747
0.0442505
0.0119019
-0.0567627
-0.0531006
0.0244141
0.0646973
0.0360107
-0.00488281
0
-0.0177002
-0.0119019
-0.0131226
0.00305176
-0.00305176
-0.00946045
-0.113525
-0.21698
-0.207214
-0.117188
-0.0201416
0.0930786
0.134888
0.0811768
0.0286865
0.0088501
0.00457764
-0.0186157
-0.0344849
-0.00823975
0.0408936
0.0738525
0.108948
0.12146
0.0668335
-0.00854492
-0.071106
-0.13092
-0.166321
-0.16449
-0.12207
-0.0567627
-0.0119019
0.0430298
0.067749
0.0378418
-0.0137329
-0.0415039
-0.0637817
-0.0338745
-0.00488281
0.0177002
0.0427246
0.00701904
-0.0100708
0.027771
0.113525
0.228271
0.281677
0.294189
0.162964
-0.0308228
-0.154419
-0.178223
-0.15564
-0.0982666
-0.0857544
-0.129395
-0.17395
-0.151978
-0.12207
-0.0524902
0.0250244
0.0762939
0.098877
0.133667
0.17395
0.222473
0.202332
0.121765
0.0506592
-0.0308228
-0.108032
-0.115662
-0.0869751
-0.0393677
0.0222778
0.0204468
-0.0274658
-0.0338745
-0.0131226
-0.010376
-0.0390625
-0.0106812
0.0137329
0.00366211
0
0.0463867
0.015564
-0.038147
-0.0592041
-0.0582886
-0.0332642
0.0537109
0.103149
0.06073
0.0231934
-0.0222778
-0.0857544
-0.139771
-0.135803
-0.062561
0.0384521
0.124207
0.179749
0.178528
0.144043
0.0753784
0.000915527
-0.0271606
-0.0393677
-0.0421143
-0.0958252
-0.155029
-0.132446
-0.0579834
0.0421143
0.138245
0.13031
0.0637817
0.015564
-0.0137329
0.012207
0.0299072
0.0119019
0.000610352
-0.0332642
-0.0588989
-0.0497437
-0.0668335
-0.0765991
-0.0552368
-0.0854492
-0.0323486
0.0930786
0.162354
0.153503
0.0796509
-0.0866699
-0.161438
-0.134277
-0.0646973
0.0128174
0.0640869
0.0344849
-0.00671387
-0.0131226
-0.0360107
-0.0622559
-0.0820923
-0.0619507
-0.0280762
0.00946045
0.0256348
0.00335693
-0.0088501
0.00976562
-0.00701904
-0.0268555
-0.0314331
-0.032959
-0.00366211
-0.00488281
-0.0640869
-0.100708
-0.115967
-0.104065
-0.0915527
-0.088501
-0.0405884
0.0189209
0.0595093
0.0897217
0.120544
0.195618
0.219421
0.1651
0.0357056
-0.0460815
-0.0683594
-0.0671387
-0.00640869
0.0643921
0.0238037
-0.0210571
-0.0405884
-0.0283813
0.0558472
0.144043
0.17334
0.143433
0.0747681
0.00396729
-0.0366211
-0.0314331
0.00762939
-0.00823975
-0.0387573
-0.0387573
-0.0012207
0.0115967
-0.0259399
-0.0323486
-0.0332642
-0.0201416
-0.0335693
-0.00854492
0.0134277
0.0134277
0.0189209
0.0238037
0.0564575
0.0570679
0.0164795
-0.0567627
-0.142212
-0.209045
-0.197449
-0.125427
-0.00671387
0.108032
0.148621
0.124817
0.109253
0.104675
0.0961304
0.0823975
0.0482178
-0.0302124
-0.113831
-0.115967
-0.0802612
-0.0387573
0.0469971
0.127869
0.106506
0.0775146
0.121765
0.158386
0.0830078
0.0622559
0.0726318
0.039978
0.00366211
-0.045166
-0.0967407
-0.0949097
-0.0631714
-0.0717163
-0.071106
-0.0765991
-0.0430298
-0.00183105
0.0289917
0.0180054
-0.0369263
-0.0735474
-0.0808716
-0.0305176
0.0241089
0.106812
0.187683
0.192566
0.149231
-0.0177002
-0.106201
-0.131531
-0.133057
-0.0970459
-0.0427246
0.0109863
0.0265503
0.0680542
0.0793457
0.0796509
0.0646973
0.0131226
-0.0613403
-0.108643
-0.151062
-0.143127
-0.0973511
-0.0241089
0.0500488
0.122986
0.151672
0.172729
0.213318
0.240173
0.187683
0.134277
0.0692749
-0.0985718
-0.186157
-0.163879
-0.125732
-0.0909424
-0.0448608
-0.0320435
-0.0161743
0.0231934
0.0363159
0.0579834
0.0802612
0.0439453
0.0149536
0.0134277
0.045166
0.0848389
0.0582886
0.0292969
0.0158691
-0.015564
-0.0344849
-0.0112915
0.0393677
0.0717163
0.0964355
0.0708008
0.0405884
0.0256348
-0.017395
-0.03479
0.00549316
0.102539
0.15564
0.165405
0.161438
0.145264
0.0866699
0.0262451
0.0314331
0.0280762
0.0140381
0.00854492
0.00244141
0
0.00183105
-0.00732422
-0.0234985
-0.0271606
-0.00671387
0.00946045
0.0317383
-0.00274658
-0.00366211
0.0787354
0.122681
0.107117
0.0967407
0.0674438
-0.0183105
-0.117188
-0.0918579
-0.00762939
0.0668335
0.121155
0.146179
0.12207
0.093689
0.00946045
-0.0576782
-0.0814819
-0.0918579
-0.0863647
-0.0537109
-0.0393677
-0.0613403
-0.0747681
-0.108948
-0.0915527
-0.0579834
0
0.0616455
0.14679
0.161438
0.0881958
-0.00488281
-0.0512695
-0.0564575
-0.0650024
-0.0668335
-0.083313
-0.0939941
-0.088501
-0.0979614
-0.0524902
0.0271606
0.133972
0.21759
0.314026
0.325623
0.272522
0.203552
0.149231
0.0604248
-0.0857544
-0.210266
-0.22522
-0.196838
-0.149841
-0.0775146
0.0170898
0.0720215
0.0778198
0.0668335
0.055542
0.0650024
0.0662231
0.0296021
-0.0119019
-0.0662231
-0.0299072
0.0772095
0.0979614
0.0817871
0.0646973
0.0466919
-0.0210571
-0.104675
-0.17395
-0.170898
-0.178528
-0.172424
-0.157776
-0.0717163
0.0170898
0.0454712
0.0421143
0.0244141
-0.0167847
-0.0686646
-0.115662
-0.0698853
-0.00335693
0.0305176
0.0198364
0.0192261
0.0271606
0.0350952
0.0292969
0.0515747
0.0289917
-0.0256348
-0.0802612
-0.085144
-0.0326538
0.0271606
0.0717163
0.0588989
0.0192261
-0.00335693
-0.0442505
-0.0564575
-0.00579834
0.0509644
0.0653076
0.00946045
0.0106812
0.00305176
-0.0100708
-0.00274658
-0.0088501
0.00183105
-0.00579834
-0.0418091
-0.0402832
-0.0158691
0.0106812
0.0537109
0.0927734
0.109253
0.104065
0.0836182
0.0723267
-0.0283813
-0.105591
-0.144348
-0.144653
-0.0933838
-0.0466919
0.015564
0.0311279
0.0259399
0.0131226
-0.0692749
-0.118713
-0.149536
-0.167542
-0.201111
-0.195312
-0.186157
-0.142517
-0.0839233
-0.0332642
0.0241089
0.027771
0.0656128
0.0939941
0.09552
0.0650024
0.0613403
0.0619507
0.0619507
0.0775146
0.0820923
0.0973511
0.0497437
-0.0131226
0
0.0518799
0.0552368
0.0778198
0.090332
0.0186157
-0.108032
-0.205383
-0.25177
-0.145264
0.0274658
0.155945
0.21637
0.254822
0.242004
0.143433
0.00946045
-0.0314331
-0.0271606
-0.00366211
0.0238037
0.0445557
0.0213623
-0.065918
-0.172119
-0.198975
-0.183105
-0.133057
-0.032959
0.0708008
0.103455
0.115662
0.106201
0.0485229
-0.0152588
-0.0476074
0.00946045
0.0900269
0.128479
0.0979614
0.0302124
-0.0509644
-0.149536
-0.231628
-0.229187
-0.188599
-0.106201
-0.0442505
0.0161743
0.0363159
0.0509644
0.0332642
0.00671387
-0.0262451
0.0256348
0.0598145
0.114441
0.137024
0.06073
-0.039978
-0.0637817
-0.0802612
-0.0869751
-0.0546265
0.0164795
0.0543213
0.0253296
0.0643921
0.0811768
0.0418091
0.00335693
0.017395
0.015564
0.0137329
0.0183105
-0.00793457
-0.0723267
-0.0698853
-0.0250244
0.0106812
0.0430298
0.0857544
0.0759888
0.0549316
0.0134277
-0.0314331
-0.0463867
-0.000915527
0.00671387
0.0418091
0.100403
0.115662
0.0357056
-0.03479
-0.071106
-0.0466919
-0.0192261
0.0170898
0.0570679
0.0457764
0.0259399
0.0308228
0.020752
0.0143433
0.0119019
0.0323486
0.0311279
0.0271606
0.015564
0.0552368
0.0997925
0.112915
0.0213623
-0.0588989
-0.116272
-0.126953
-0.144043
-0.0753784
0.0210571
0.0900269
0.0848389
0.0259399
0.00762939
0.0198364
0.0204468
0.0476074
0.06073
0.0106812
-0.050354
-0.105591
-0.0784302
-0.0286865
0.0265503
0.0424194
0.0473022
0.0253296
0.00854492
0.0473022
0.132446
0.175171
0.126343
0.0411987
-0.0265503
0.000915527
0.0839233
0.170593
0.207214
0.172424
0.0216675
-0.12085
-0.220642
-0.246277
-0.176697
-0.108337
-0.0552368
-0.0125122
0.038147
0.123901
0.147095
0.136108
0.083313
-0.0292969
-0.17334
-0.243835
-0.184937
-0.111389
0.00457764
0.107117
0.14679
0.0912476
0.0436401
0.0274658
0.0802612
0.140686
0.186768
0.143433
0.0814819
0.0634766
0.0598145
0.0561523
0.0637817
0.0839233
0.12207
0.104065
0.0521851
-0.00854492
-0.0466919
-0.107117
-0.172424
-0.154419
-0.0601196
0.00701904
0.0613403
0.0961304
0.141296
0.155945
0.126648
0.101013
0.0961304
0.0778198
0.0619507
0.0265503
-0.0411987
-0.0393677
-0.0375366
-0.0497437
-0.0454712
0.0299072
0.0747681
0.0924683
0.129089
0.0534058
-0.0354004
-0.0515747
-0.0390625
-0.0656128
-0.0875854
-0.0643921
-0.0509644
-0.00366211
0.107727
0.143738
0.0994873
0.015564
-0.0149536
0.0164795
0.0509644
0.0799561
0.126648
0.18219
0.173035
0.127869
0.109253
0.112915
0.0430298
-0.0201416
-0.0772095
-0.101013
-0.0881958
-0.0515747
-0.0106812
-0.00579834
0.010376
0.00762939
0.0213623
-0.0100708
-0.0796509
-0.127563
-0.124817
-0.0881958
-0.113525
-0.152893
-0.162354
-0.139465
-0.0506592
0.0668335
0.146179
0.222473
0.227661
0.212097
0.213318
0.226746
0.202942
0.119019
0.0595093
0.00457764
-0.0247192
0.0320435
0.137634
0.195312
0.171814
0.0643921
0.00671387
-0.0540161
-0.0894165
-0.0991821
-0.0643921
-0.00335693
0.0161743
0.0292969
-0.0167847
-0.03479
0.0305176
0.0900269
0.15686
0.192261
0.175781
0.118713
0.0604248
-0.0106812
-0.03479
-0.0799561
-0.126038
-0.100098
0.000915527
0.0930786
0.0802612
0.0115967
-0.0418091
-0.0637817
-0.0656128
-0.0524902
-0.0289917
0.00701904
0.0222778
-0.0177002
-0.100098
-0.130005
-0.085144
-0.0466919
0.00762939
0.0723267
0.105286
0.0613403
0.0448608
0.0344849
0.0250244
0.0180054
0.00823975
-0.0439453
-0.0698853
-0.0732422
-0.0088501
0.131531
0.281372
0.340576
0.308838
0.223389
0.0891113
-0.0576782
-0.195923
-0.243835
-0.258789
-0.211792
-0.113525
-0.0335693
-0.00183105
-0.0460815
-0.118408
-0.153198
-0.13916
-0.103149
-0.0180054
0.124817
0.255737
0.317383
0.333862
0.256042
0.136108
0.0164795
-0.0662231
-0.0930786
-0.0823975
-0.0259399
0.0140381
0.0183105
0.00793457
0.0204468
0.0430298
0.0735474
0.0973511
0.0595093
0.0216675
-0.0109863
0.010376
-0.0372314
-0.102234
-0.105896
-0.0515747
-0.0271606
-0.0289917
-0.0460815
0.000610352
0.0549316
0.0820923
0.0897217
0.0668335
0.0637817
0.0570679
0.045166
0.0637817
0.027771
-0.0717163
-0.144348
-0.162659
-0.15686
-0.144348
-0.108337
-0.0460815
-0.0186157
0.0234985
0.062561
0.164795
0.254822
0.273132
0.248108
0.19104
0.072937
-0.0402832
-0.150452
-0.177307
-0.0894165
0.0204468
0.0854492
0.0738525
0.0405884
0.0326538
-0.0244141
-0.057373
-0.085144
-0.0537109
0
0.0372314
-0.010376
0.055542
0.0247192
-0.0491333
-0.151062
-0.159607
-0.117188
-0.0460815
0.00762939
0.0192261
0.0109863
-0.0387573
-0.0927734
-0.12146
-0.105591
-0.0646973
-0.0253296
0.00946045
0.0265503
0.0204468
0.0143433
0.000610352
-0.0216675
-0.00701904
-0.017395
-0.0256348
-0.0466919
-0.0570679
-0.0512695
-0.0314331
-0.00152588
0.0479126
0.0863647
0.0967407
0.0628662
0.0558472
0.0619507
0.0302124
0.0192261
0.0390625
0.0384521
0.00915527
-0.00701904
-0.0283813
-0.0308228
-0.0283813
-0.00152588
0.0637817
0.0946045
0.133667
0.107117
0.0549316
0.0115967
-0.0109863
-0.0228882
0.0637817
0.072937
-0.0372314
-0.09552
-0.0930786
-0.0738525
-0.012207
0.0473022
0.0778198
0.135803
0.175171
0.158081
0.0204468
-0.115967
-0.202942
-0.250244
-0.217285
-0.098877
0.00671387
0.0363159
-0.0234985
-0.103455
-0.184631
-0.193176
-0.122375
-0.0546265
-0.0323486
0.0164795
0.0354004
0.0405884
0.0314331
0.0100708
0.0204468
0.0204468
-0.0131226
-0.0405884
-0.0732422
-0.138855
-0.137939
-0.104065
-0.0552368
0.0100708
0.0436401
0.0695801
0.0863647
0.0875854
0.0521851
-0.0088501
-0.0836182
-0.112
-0.0793457
-0.0662231
0.0119019
0.155945
0.228882
0.278931
0.26886
0.192261
0.125732
0.105896
0.0289917
-0.0576782
-0.0634766
-0.0753784
-0.0784302
-0.0976562
-0.117188
-0.0866699
-0.00366211
0.0848389
0.154724
0.144653
0.0881958
0.0170898
-0.0262451
-0.0888062
-0.118103
-0.131836
-0.0991821
-0.10437
-0.0802612
-0.00427246
0.022583
0.0460815
0.0485229
-0.0195312
-0.0744629
-0.10498
-0.0946045
-0.124512
-0.180664
-0.130005
-0.119019
-0.0720215
-0.0106812
0.0634766
0.0750732
0.0247192
-0.0216675
-0.012207
0.0283813
0.0820923
0.147705
0.116577
0.0619507
0.0357056
0.0360107
0.0802612
0.180054
0.210571
0.180054
0.0454712
-0.142212
-0.304871
-0.327759
-0.236206
-0.127869
-0.0317383
0.00640869
-0.0112915
-0.057373
-0.0857544
-0.0424194
0.00915527
-0.00305176
-0.0531006
-0.043335
-0.0338745
-0.0430298
0.0128174
0.0793457
0.0756836
0.0531006
0.0680542
0.0704956
0.0619507
0.0579834
0.0915527
0.140381
0.13855
0.093689
0.0442505
0.0115967
0.00701904
-0.017395
-0.0109863
0.0195312
0.0296021
0.038147
0.0466919
-0.0125122
-0.145569
-0.264587
-0.285339
-0.227966
-0.111389
0.0320435
0.098877
0.0564575
-0.00335693
-0.0390625
-0.0622559
-0.0210571
0.0582886
0.166626
0.239258
0.257263
0.212097
0.0842285
-0.0915527
-0.159607
-0.0958252
-0.0283813
-0.0131226
-0.0506592
-0.0280762
-0.0296021
-0.0421143
-0.0576782
-0.0637817
-0.108032
-0.0808716
0.0106812
0.12146
0.122375
0.0415039
-0.00396729
-0.0656128
-0.0949097
-0.0744629
-0.0195312
0.0167847
0.00610352
-0.0491333
-0.0732422
-0.0656128
-0.0427246
0.000915527
0.057373
0.0927734
0.0662231
0.0222778
-0.0286865
-0.0418091
-0.0518799
-0.0564575
-0.0210571
0.00671387
0.0411987
0.102234
0.0802612
0.0280762
-0.0274658
-0.017395
0.000915527
0.0500488
0.146484
0.177612
0.135498
0.0769043
0.00793457
-0.0512695
-0.112305
-0.136414
-0.0805664
0.0283813
0.117188
0.118713
0.0888062
0.0723267
0.0274658
-0.0286865
-0.0393677
-0.0296021
-0.0158691
0.0534058
0.0979614
0.0900269
0.027771
0
-0.0216675
-0.0357056
-0.0421143
-0.0576782
-0.083313
-0.050354
0.0411987
0.134583
0.154114
0.13092
0.065918
0.00518799
-0.00610352
0.015564
-0.0100708
-0.0494385
-0.111084
-0.161743
-0.174561
-0.160522
-0.123596
-0.125427
-0.140381
-0.108032
-0.0769043
-0.0354004
0.0534058
0.0637817
0.020752
0.0280762
0.0720215
0.123901
0.155029
0.150757
0.125122
0.128479
0.103455
0.0567627
0.0405884
0.0570679
0.102844
0.0985718
0.0750732
0.114136
0.141296
0.0946045
0.0790405
0.137634
0.192261
0.207825
0.197144
0.159302
-0.00732422
-0.14679
-0.23407
-0.209656
-0.125427
-0.0482178
0.0131226
0.0570679
0.0201416
-0.0680542
-0.137634
-0.174255
-0.166321
-0.125122
-0.0805664
-0.0460815
-0.0250244
-0.0289917
-0.0283813
-0.0161743
0.015564
0.0469971
0.0964355
0.10376
0.0704956
0.0152588
-0.00823975
-0.0595093
-0.0622559
-0.00427246
0.0317383
0.0192261
0.00701904
0.000915527
-0.00396729
-0.050354
-0.0881958
-0.0747681
-0.0784302
-0.105286
-0.102539
-0.120239
-0.127258
-0.0698853
0.00793457
0.0302124
0.0595093
0.12085
0.15564
0.181885
0.19165
0.135803
0.0683594
-0.00732422
-0.0732422
-0.0494385
0.0564575
0.149841
0.249023
0.317688
0.26062
0.15686
0.0238037
-0.0424194
-0.0305176
0.0161743
0.00854492
-0.0631714
-0.116577
-0.115967
-0.0985718
-0.0708008
-0.0344849
0.0610352
0.135193
0.142212
0.194702
0.273132
0.337524
0.317993
0.265503
0.142517
0.0366211
-0.0384521
-0.0195312
0.00823975
0.0408936
0.0305176
0.0497437
0.0744629
0.104675
0.129395
0.124817
0.0921631
0.027771
-0.0350952
-0.100098
-0.0790405
0.0164795
0.140686
0.202332
0.173035
0.0308228
-0.109558
-0.194702
-0.26947
-0.236816
-0.0942993
0.0601196
0.110779
0.153198
0.171204
0.190125
0.179138
0.105896
0.0219727
-0.1474
-0.232849
-0.213928
-0.138245
-0.0183105
0.0717163
0.102234
0.0808716
0.0845337
0.0588989
0.0012207
-0.00915527
0.0256348
0.108948
0.15686
0.126648
0.0341797
-0.0939941
-0.223389
-0.241394
-0.114746
0.00946045
0.0430298
0.0619507
0.0756836
0.0360107
-0.0354004
-0.0598145
-0.072937
-0.0991821
-0.107727
-0.0534058
-0.00946045
0.0408936
0.083313
0.0817871
0.0863647
0.088501
0.09552
0.106201
0.0695801
-0.039978
-0.142822
-0.19104
-0.144043
-0.0561523
0.000915527
0.0314331
0.0198364
-0.0469971
-0.130615
-0.188599
-0.18219
-0.185242
-0.168762
-0.105286
-0.0396729
0.020752
0.057373
0.0271606
-0.00366211
-0.0256348
-0.0323486
-0.0463867
-0.0634766
-0.0375366
0.0228882
0.0485229
0.0234985
0.0137329
-0.0561523
-0.184631
-0.316162
-0.32074
-0.276489
-0.145264
-0.0256348
0.107117
0.132446
0.129395
0.107727
0.135498
0.137634
0.125122
0.118408
0.062561
-0.0012207
-0.0405884
-0.0375366
-0.00518799
0.0106812
-0.0186157
-0.0473022
-0.0643921
-0.115662
-0.127258
-0.107727
-0.0695801
-0.020752
0.0863647
0.161743
0.202942
0.198059
0.195007
0.0979614
-0.0265503
-0.0762939
-0.0601196
-0.0973511
-0.153198
-0.144958
-0.105286
-0.0723267
-0.0857544
-0.0866699
-0.0775146
-0.0479126
-0.027771
0.00518799
0
-0.00610352
-0.0177002
-0.0109863
-0.0195312
-0.027771
-0.0228882
-0.0299072
-0.0234985
-0.0271606
-0.0476074
-0.0460815
-0.00640869
0.0592041
0.108643
0.136414
0.128174
0.0680542
-0.0271606
-0.0985718
-0.169678
-0.234985
-0.234985
-0.160217
-0.0927734
-0.0845337
-0.0570679
0.00579834
0
0.0195312
0.0772095
0.153503
0.210266
0.184631
0.140076
0.109863
0.0521851
0
-0.0509644
-0.0799561
-0.0515747
0.0134277
0.0585938
0.0518799
-0.0100708
-0.0747681
-0.104675
-0.0927734
-0.0695801
0.00213623
0.0860596
0.127258
0.157776
0.172119
0.132751
0.0875854
0.0302124
-0.00396729
-0.00183105
0.0112915
-0.00396729
-0.0393677
-0.022583
0.0405884
0.0650024
0.0216675
-0.0250244
-0.0491333
-0.067749
-0.0411987
-0.0387573
-0.03479
-0.0445557
-0.0741577
-0.0982666
-0.0769043
-0.0219727
0.00335693
0.0201416
0.00976562
0.017395
0.071106
0.0967407
0.0637817
0.0167847
-0.0109863
-0.0411987
-0.0253296
-0.00946045
-0.00854492
-0.020752
0.0180054
0.0509644
0.0250244
0.0610352
0.0820923
0.0790405
0.0793457
0.0579834
-0.0512695
-0.167542
-0.213013
-0.173035
-0.0778198
0.0262451
0.10498
0.137329
0.125732
0.10376
0.0350952
0.0201416
0.0613403
0.114746
0.150452
0.162659
0.0497437
-0.0289917
0.00366211
0.0814819
0.126343
0.14801
0.0997925
0.0491333
-0.039978
-0.0756836
-0.0509644
-0.0192261
-0.0109863
-0.0292969
-0.0674438
-0.119019
-0.162048
-0.143127
-0.0939941
-0.062561
0.00488281
0.0204468
0.00152588
0.0131226
0.0131226
-0.00579834
0.0228882
0.0485229
0.0283813
-0.0158691
0.00152588
0.0247192
0.0265503
0.0866699
0.150146
0.171204
0.13855
0.108948
0.0970459
0.0891113
0.0817871
0.0701904
0.0717163
0.0204468
-0.0839233
-0.135803
-0.100708
-0.0213623
0.0228882
0.0164795
0.0500488
0.0384521
0.00488281
-0.0344849
0.00274658
0.0247192
0.0616455
0.0930786
0.115662
0.106812
0.0939941
0.0619507
0.0378418
-0.00488281
-0.0323486
-0.0396729
-0.0817871
-0.138855
-0.132751
-0.0915527
-0.062561
-0.0588989
-0.0958252
-0.0537109
0.020752
0.0402832
0.0439453
0.0796509
0.0741577
0.065918
0.0820923
0.125122
0.136414
0.13031
0.098877
0.0442505
-0.015564
-0.0564575
-0.0753784
-0.0671387
-0.0579834
-0.0299072
0.0115967
0.0247192
-0.00488281
-0.0186157
-0.0201416
-0.0424194
-0.00518799
0.0183105
0.0378418
0.062561
0.105896
0.154724
0.140686
0.0921631
0.0668335
0.0668335
0.0830078
0.0567627
0.0317383
0.0180054
0.0146484
-0.0396729
-0.0894165
-0.0967407
-0.0918579
-0.119324
-0.0964355
-0.0817871
-0.0817871
-0.115967
-0.136414
-0.112915
-0.00762939
0.0784302
0.210571
0.298767
0.260315
0.119019
0.000610352
-0.00427246
0.0473022
0.0686646
0.0445557
0.0387573
0.0460815
-0.0234985
-0.109558
-0.153809
-0.141602
-0.0842285
-0.0366211
-0.0592041
-0.124207
-0.162964
-0.126038
0.0357056
0.115967
0.140381
0.127258
0.0750732
0.027771
0.0476074
0.107727
0.0817871
0.0302124
-0.0112915
-0.0576782
-0.0631714
-0.00366211
0.0326538
0.0640869
0.126648
0.148621
0.111389
0.0491333
-0.0100708
-0.0189209
-0.0289917
-0.0912476
-0.0982666
-0.0741577
-0.0363159
0.0180054
0.0744629
0.0790405
0.0411987
0.0445557
0.0479126
0.0250244
0.00213623
0.00488281
0.0253296
0.0271606
0.039978
0.0259399
0.0485229
0.0390625
-0.0280762
-0.118713
-0.14679
-0.118103
-0.0695801
0.000915527
0.138855
0.208435
0.139465
0.0485229
-0.0363159
-0.0799561
-0.0845337
-0.0637817
-0.0396729
0.0183105
0.101013
0.135498
