-0.0527954
-0.0708008
-0.0283813
0.0161743
0.0561523
0.0497437
0.050354
0.0314331
0.0534058
0
-0.0753784
-0.0521851
0.0088501
0.0479126
0.0689697
0.0668335
0.0500488
-0.00152588
-0.0088501
-0.00457764
-0.0335693
-0.0292969
-0.0210571
0.00335693
0.017395
0.00183105
-0.0454712
-0.0860596
-0.0616455
0.00518799
0.0952148
0.186462
0.31189
0.406799
0.402527
0.353699
0.202942
0.0119019
-0.169678
-0.261536
-0.20874
-0.159607
-0.101624
-0.0320435
0.0204468
0.0769043
0.118408
0.115967
0.121765
0.0524902
0
0.0262451
0.0415039
0.0265503
-0.0350952
-0.0820923
-0.186462
-0.227661
-0.199585
-0.147705
-0.101624
-0.0592041
-0.0201416
0.0143433
0.0415039
0.055542
0.072937
0.0808716
0.0643921
0.0378418
0.0628662
0.0753784
0.0662231
0.0561523
0.0897217
0.146179
0.147705
0.153809
0.143433
0.114746
0.0558472
0.050354
0.0485229
0.0332642
0.00396729
-0.0805664
-0.175476
-0.227051
-0.179138
-0.196533
-0.11261
-0.0872803
-0.0689697
-0.0372314
0
0.0271606
0.0491333
0.0222778
0.0302124
0.0363159
0.0125122
-0.00732422
-0.055542
-0.0332642
0.0393677
0.101318
0.132751
0.162354
0.124817
0.0738525
-0.038147
-0.0820923
-0.0595093
-0.0747681
-0.0759888
-0.0564575
-0.0967407
-0.123596
-0.142517
-0.166321
-0.127258
-0.06073
-0.032959
-0.0234985
-0.00183105
0.050354
0.0570679
0.0759888
0.0717163
0.027771
-0.0393677
-0.0839233
-0.0704956
0.0375366
0.167847
0.215454
0.215149
0.197449
0.112
0.0201416
-0.0360107
-0.0247192
-0.0582886
-0.15564
-0.180054
-0.174561
-0.114441
-0.0506592
-0.0405884
-0.00183105
0.0186157
0.055542
0.0738525
0.155945
0.272522
0.340881
0.351562
0.292664
0.216064
0.0598145
-0.146484
-0.23468
-0.26001
-0.266724
-0.260315
-0.223694
-0.178528
-0.153809
-0.126038
-0.0900269
-0.050354
0.0424194
0.114441
0.149841
0.160828
0.131836
0.109863
0.0152588
-0.0576782
-0.057373
-0.0921631
-0.123291
-0.13916
-0.083313
0.0134277
0.10498
0.195312
0.255737
0.252991
0.152588
0.027771
-0.0479126
-0.134583
-0.151367
-0.085144
0.0656128
0.227356
0.314026
0.267029
0.0973511
-0.00610352
-0.110779
-0.26062
-0.369873
-0.326538
-0.241699
-0.165405
-0.100098
-0.0439453
0.0479126
0.116272
0.100403
0.0866699
0.0775146
-0.0146484
-0.128479
-0.181885
-0.148621
-0.0918579
-0.0296021
0.0335693
0.0665283
0.102844
0.143127
0.133667
0.0842285
0.038147
0.0192261
-0.039978
-0.110168
-0.131836
-0.133667
-0.0949097
-0.065918
-0.0613403
0.0137329
0.0860596
0.144958
0.185242
0.220642
0.170593
0.0952148
0.0985718
0.135803
0.153503
0.111694
0.0256348
-0.0735474
-0.137634
-0.193787
-0.187988
-0.184021
-0.130615
-0.0784302
-0.0820923
-0.107727
-0.0970459
-0.0775146
-0.0189209
0.055542
0.145569
0.160522
0.183105
0.1474
0.00152588
-0.133057
-0.161743
-0.125732
-0.0518799
-0.0146484
0.0183105
0.0656128
0.0869751
0.0396729
-0.0289917
-0.0460815
-0.0683594
-0.0732422
-0.0537109
-0.0177002
0.0183105
0.0360107
0.0479126
0.0497437
0.0167847
-0.0280762
-0.0686646
-0.0836182
-0.0778198
-0.062561
-0.0506592
-0.0476074
0.0308228
0.124207
0.19104
0.21759
0.193787
0.132446
-0.0259399
-0.10437
-0.0753784
-0.0460815
-0.0305176
-0.0305176
0
0.0540161
0.148315
0.19043
0.200195
0.219116
0.158386
-0.0146484
-0.167542
-0.230408
-0.186462
-0.0991821
0.00457764
0.0967407
0.0897217
-0.0161743
-0.0570679
-0.0100708
0.0338745
0.0222778
-0.0485229
-0.108032
-0.128479
-0.167236
-0.198059
-0.211487
-0.168762
-0.085144
-0.0396729
0.0418091
0.126648
0.173645
0.200195
0.248108
0.264587
0.172424
0.0180054
-0.0662231
-0.145874
-0.146179
-0.0256348
0.0811768
0.10437
0.106506
0.0933838
0.0283813
-0.0924683
-0.137024
-0.100403
-0.0317383
0.010376
-0.00823975
-0.0430298
-0.0445557
-0.0314331
-0.0161743
0.00335693
0.0854492
0.150452
0.146179
0.111084
0.115967
0.0714111
0
-0.0146484
-0.00274658
-0.0360107
-0.105591
-0.17395
-0.170593
-0.152893
-0.142517
-0.126038
-0.0881958
-0.0595093
-0.0183105
0.0186157
0.0378418
0.0631714
0.0680542
0.0720215
0.0595093
0.0387573
0.0445557
0.0128174
0.00457764
0.0201416
0.117493
0.16449
0.209045
0.198669
0.13092
0.0973511
-0.00396729
-0.118713
-0.155334
-0.115967
-0.0256348
0.0360107
0.067749
0.0909424
0.0888062
-0.0317383
-0.118103
-0.144653
-0.141907
-0.11261
-0.0241089
0.0759888
0.146179
0.169373
0.148926
0.11261
0.0454712
-0.00213623
-0.0283813
-0.0466919
-0.0646973
-0.122986
-0.154114
-0.050354
-0.0424194
-0.0759888
-0.0732422
-0.0546265
-0.0323486
-0.0128174
-0.0204468
-0.0427246
-0.0134277
0.0543213
0.163269
0.231323
0.214844
0.189514
0.0875854
-0.0842285
-0.176086
-0.189819
-0.128479
-0.039978
0.0213623
0.0534058
0.0405884
0.0891113
0.137329
0.133362
0.0775146
0.0637817
0.13031
0.110779
0.0735474
0.057373
0.0393677
-0.0683594
-0.207214
-0.248413
-0.205383
-0.140991
-0.0924683
-0.0469971
-0.00305176
0.00762939
-0.0161743
-0.0244141
0.00366211
0.0378418
0.0527954
0.0466919
0.088501
0.18219
0.203857
0.197754
0.191956
0.182495
0.139465
0.0140381
-0.0436401
-0.0469971
-0.0656128
-0.015564
0.057373
-0.00946045
-0.0927734
-0.0796509
-0.12085
-0.151978
-0.161743
-0.11261
-0.0506592
-0.0112915
0.010376
0.0314331
-0.0149536
-0.050354
-0.0598145
-0.032959
-0.012207
-0.00213623
0.0213623
0.032959
0.0296021
0.00915527
-0.00762939
-0.0537109
-0.0656128
-0.0524902
-0.0335693
0.00640869
0.0479126
0.0872803
0.0820923
0.107117
0.111084
0.10498
0.0753784
0.0946045
0.106506
0.088501
0.0302124
-0.0888062
-0.156555
-0.0888062
-0.00152588
0.0579834
0.0952148
0.104065
0.0845337
0.0186157
-0.00518799
-0.0137329
0.000915527
0.0100708
0.078125
0.133972
0.153809
0.0720215
-0.0476074
-0.151062
-0.204773
-0.128174
-0.0335693
0.0296021
0.0302124
0.0354004
0.0088501
-0.0982666
-0.0906372
-0.0192261
0.0540161
0.0891113
0.0653076
0.0338745
-0.00427246
-0.032959
-0.0527954
-0.0204468
-0.0256348
-0.0219727
0
0.00610352
-0.0250244
-0.0509644
-0.0817871
-0.0552368
0.00946045
0.0579834
0.122986
0.19165
0.240173
0.27832
0.289001
0.2005
0.0961304
0.0161743
-0.0634766
-0.0619507
-0.010376
0.0192261
0.00457764
0.0411987
0
-0.0714111
-0.0653076
-0.0601196
-0.0549316
-0.0808716
-0.0814819
-0.0698853
-0.0524902
-0.032959
-0.0430298
-0.0646973
-0.0601196
-0.0427246
0.00366211
0.0500488
0.0570679
0.0549316
0.0827026
0.137024
0.214233
0.249329
0.205994
0.124512
0.0656128
-0.0588989
-0.198975
-0.18158
-0.152893
-0.1474
-0.142822
-0.106201
-0.0689697
-0.0366211
-0.017395
-0.0222778
-0.0296021
-0.0256348
0.00457764
0.0131226
0.00366211
0.015564
0.0369263
0.0411987
0.0534058
0.0900269
0.13092
0.154724
0.150452
0.201721
0.26001
0.257568
0.226746
0.13031
0.0402832
-0.0756836
-0.207214
-0.238342
-0.221558
-0.180054
-0.118408
-0.0796509
-0.0686646
-0.0634766
-0.0802612
-0.0888062
-0.0354004
0.0204468
0.0314331
0.0393677
0.0366211
0.0204468
-0.0424194
-0.0692749
-0.0335693
0.0134277
0.0741577
0.140076
0.197144
0.194092
0.126953
0.0720215
0.00213623
-0.0466919
-0.0314331
-0.0149536
0.000915527
0.0360107
0.0164795
-0.0143433
-0.0231934
-0.0256348
-0.0613403
-0.126038
-0.116577
-0.0778198
-0.0308228
-0.0292969
-0.0268555
-0.0357056
-0.0531006
-0.0402832
-0.0112915
-0.0146484
-0.00762939
-0.0100708
0.00701904
0.015564
0.000305176
0.0177002
0.00762939
0.0146484
0.0296021
0.0692749
0.115356
0.168152
0.212402
0.241699
0.243835
0.200195
0.105591
0.050354
0.0372314
0.057373
0.0335693
-0.00915527
-0.0927734
-0.212708
-0.271912
-0.259705
-0.213928
-0.157166
-0.072937
-0.0296021
-0.0128174
-0.00701904
0.0152588
0.038147
0.0509644
0.0827026
0.072937
0.06073
0.0183105
0.00488281
-0.0177002
-0.0485229
-0.0259399
0.0219727
0.0186157
0.0119019
-0.0262451
-0.032959
0.0177002
0.110474
0.166931
0.197144
0.202942
0.230713
0.137939
0.027771
-0.0411987
-0.105896
-0.169983
-0.205994
-0.205383
-0.159912
-0.101013
-0.0662231
0.0143433
0.0866699
0.114136
0.118103
0.139465
0.138245
0.0405884
-0.017395
0.0012207
0.0311279
-0.0244141
-0.0949097
-0.127869
-0.169983
-0.137024
-0.071106
-0.00762939
0.0210571
0.00488281
0.00579834
0.0152588
-0.0012207
-0.038147
-0.0296021
-0.00610352
0.00366211
0.00518799
0.0302124
0.0613403
0.0646973
0.0308228
0.0189209
0.00946045
-0.00305176
-0.0100708
-0.0271606
-0.0289917
-0.0253296
-0.027771
-0.0189209
0.00915527
0.0619507
0.15686
0.201111
0.20752
0.172729
0.158691
0.115662
0.0250244
-0.0616455
-0.0769043
-0.0231934
0.0479126
0.0619507
0.0369263
-0.0244141
-0.120239
-0.153809
-0.134583
-0.108643
-0.0875854
-0.06073
-0.0604248
-0.0393677
-0.0497437
-0.0369263
0.0189209
0.0521851
0.0717163
0.0863647
0.0845337
0.0622559
-0.0164795
-0.0363159
0.0427246
0.11261
0.102539
0.0469971
-0.0158691
-0.0390625
-0.0772095
-0.0930786
-0.0784302
-0.0405884
-0.0592041
-0.0561523
-0.0357056
-0.0238037
-0.0222778
-0.00457764
0.0253296
0.0521851
0.0354004
-0.0106812
-0.0189209
-0.0369263
-0.0982666
-0.100098
-0.0640869
-0.0366211
-0.045166
-0.0378418
-0.0115967
0.0579834
0.136414
0.180664
0.2005
0.189819
0.170898
0.0704956
0
-0.0234985
0.00488281
-0.0177002
-0.0650024
-0.0839233
-0.102844
-0.116272
-0.0802612
-0.020752
0.0134277
0.0521851
0.0393677
0.000305176
-0.0402832
-0.0753784
-0.0915527
-0.0784302
-0.0616455
-0.0509644
-0.017395
0.0289917
0.0784302
0.0964355
0.0521851
0.0708008
0.126648
0.181885
0.210876
0.207825
0.187988
0.10498
-0.0012207
-0.0564575
-0.0326538
-0.0314331
-0.0930786
-0.177307
-0.171814
-0.0796509
0.0128174
0.0537109
0.0552368
0.0280762
0.00854492
-0.0506592
-0.126038
-0.0881958
-0.0112915
0.0384521
0.0631714
0.0717163
0.0939941
0.107727
0.0784302
0.098877
0.0628662
-0.0491333
-0.0845337
-0.0881958
-0.0646973
-0.0506592
-0.0518799
-0.0476074
-0.0274658
-0.0186157
0
-0.00518799
-0.0100708
0.00274658
0.0231934
0.0366211
0.0921631
0.125122
0.104675
0.0650024
0.0384521
-0.00640869
-0.0796509
-0.0698853
-0.0189209
0.0164795
0.032959
-0.00854492
0.00946045
0.00274658
-0.00488281
0.027771
0.119629
0.195007
0.236511
0.2005
0.158386
0.117798
0.0210571
-0.027771
-0.0991821
-0.140991
-0.142212
-0.143127
-0.142822
-0.119019
-0.0881958
-0.0637817
-0.0558472
-0.0457764
-0.00854492
-0.0201416
-0.0186157
-0.00396729
0.00488281
0.0222778
0.00732422
-0.0112915
-0.0152588
0.00396729
0.0375366
0.0875854
0.115967
0.107422
0.0976562
0.0875854
0.0479126
0.043335
0.0845337
0.101624
0.0311279
-0.0460815
-0.055542
-0.0778198
-0.0778198
0.0106812
0.0912476
0.137634
0.111389
0.114441
0.106506
0
-0.0894165
-0.121765
-0.113831
-0.119934
-0.154419
-0.149536
-0.0753784
-0.0259399
-0.00457764
0.0305176
0.0271606
0.0454712
0.0750732
0.167236
0.241699
0.257568
0.246582
0.158997
-0.0430298
-0.155334
-0.150452
-0.118103
-0.0720215
-0.0405884
-0.0784302
-0.1474
-0.149536
-0.123291
-0.109253
-0.0576782
0.0125122
0.0592041
0.083313
0.0997925
0.0918579
0.0402832
0.00183105
0.0439453
0.0793457
0.0634766
0.0717163
0.0918579
0.0546265
0.012207
-0.0302124
-0.0650024
-0.09552
-0.123901
-0.0802612
-0.00946045
0.0213623
0.0341797
0.0485229
-0.017395
-0.0799561
-0.06073
0.00579834
0.0762939
0.14679
0.181274
0.151062
0.0332642
-0.0546265
-0.057373
-0.10437
-0.134583
-0.111084
-0.0817871
-0.0662231
-0.0317383
-0.0283813
-0.0149536
-0.0216675
-0.0180054
0.00793457
0.00915527
0.0106812
0.0253296
0.0473022
0.0653076
0.065918
0.0363159
0.0170898
0.0234985
0.0210571
0.0323486
0.0720215
0.150757
0.230713
0.325012
0.411377
0.406799
0.316467
0.158386
-0.0238037
-0.0976562
-0.187073
-0.260925
-0.240479
-0.227356
-0.176392
-0.083313
-0.0280762
-0.0436401
-0.0701904
-0.0558472
-0.10498
-0.120239
-0.101624
-0.0930786
-0.0668335
-0.0375366
-0.0219727
0.0149536
0.0183105
0.0244141
0.0360107
0.00518799
0.0146484
0.0204468
-0.00946045
0.00213623
0.045166
0.0427246
0.015564
0.00823975
0.0115967
0.00701904
0.0115967
0.0268555
0.0430298
0.0384521
0.039978
0.0637817
0.0857544
0.0662231
0.0323486
0.00793457
-0.0198364
-0.0695801
-0.0808716
-0.0402832
0.0341797
0.115356
0.179138
0.177917
0.163574
0.108032
0.0393677
0.0100708
-0.0250244
0.0268555
0.0234985
0
0.00701904
0.0137329
0.0360107
0.043335
0.101318
0.186157
0.212708
0.102539
-0.0579834
-0.161743
-0.241089
-0.224915
-0.129089
-0.0564575
-0.0152588
-0.00305176
-0.0439453
-0.098877
-0.0704956
0.0192261
0.0842285
0.0991821
0.0946045
0.0848389
0.0439453
-0.0341797
-0.0732422
-0.0738525
-0.0872803
-0.0875854
-0.0814819
-0.0665283
-0.017395
0.0210571
-0.0125122
-0.0344849
-0.0552368
-0.0558472
-0.0527954
-0.00579834
0.0485229
0.0946045
0.125732
0.13855
0.123291
0.108948
0.0363159
-0.0473022
-0.0509644
-0.0311279
-0.00335693
0.0326538
0.0860596
0.0900269
0.0305176
-0.0442505
-0.0125122
-0.0308228
-0.0845337
-0.1297
-0.112
-0.0747681
-0.0296021
0.00274658
0.010376
0.0216675
0.039978
0.0463867
0.00671387
-0.0369263
-0.0247192
0.0561523
0.129089
0.177612
0.209656
0.192261
0.124817
-0.00335693
-0.0982666
-0.126648
-0.150452
-0.108337
-0.0445557
0.0106812
0.0686646
0.126038
0.105591
0.0012207
-0.0991821
-0.128479
-0.0909424
-0.0991821
-0.09552
-0.0796509
-0.0558472
-0.0878906
-0.0875854
-0.0469971
-0.0369263
-0.0180054
-0.00671387
-0.00976562
0.0131226
-0.00152588
-0.020752
0.00640869
0.0653076
0.114746
0.192566
0.184937
0.208435
0.183716
0.114441
0.0408936
-0.0296021
-0.0814819
-0.146179
-0.158081
-0.12146
-0.1297
-0.0985718
-0.0390625
-0.0137329
-0.0140381
0.012207
0.017395
0.020752
0.00305176
0.000305176
0.072937
0.133972
0.230408
0.320129
0.365295
0.30426
0.093689
-0.0921631
-0.195923
-0.197449
-0.176086
-0.168457
-0.145569
-0.0778198
-0.0662231
-0.072937
-0.0671387
-0.0341797
-0.0158691
0.0170898
0.00305176
-0.0186157
-0.0317383
-0.0759888
-0.0704956
-0.0582886
-0.0134277
0.0250244
0.0656128
0.0982666
0.124817
0.119629
0.0842285
-0.0125122
-0.0405884
-0.0469971
-0.0704956
-0.108032
-0.0656128
0.00915527
0.0372314
0.06073
0.0518799
0.0570679
0.057373
0.0286865
0.0253296
0.0543213
0.0485229
-0.0100708
-0.0509644
-0.00396729
0.0262451
-0.00701904
-0.0134277
-0.0338745
-0.0369263
-0.00488281
0.0265503
0.06073
0.0726318
0.103149
0.0708008
-0.0112915
-0.0732422
-0.101624
-0.0894165
-0.0375366
0.0445557
0.109863
0.139465
0.136414
0.093689
0.0460815
-0.0842285
-0.141296
-0.0592041
0.0570679
0.215454
0.333557
0.368347
0.327454
0.225525
0.0997925
-0.118103
-0.258179
-0.273743
-0.196228
-0.127563
-0.090332
-0.102539
-0.125122
-0.0982666
-0.0784302
-0.0772095
-0.0741577
-0.0576782
-0.0302124
-0.0152588
0.00274658
0.0271606
0.0396729
0.0137329
-0.0158691
-0.0387573
-0.0466919
-0.0354004
-0.0296021
0.00335693
0.0314331
0.0411987
0.0411987
0.0296021
0.03479
0.00610352
-0.015564
-0.0265503
-0.0137329
-0.0299072
0.00335693
0.0314331
0.0253296
0.027771
0.0314331
0.0363159
0.038147
0.0384521
0.0674438
0.101318
0.200195
0.379028
0.451965
0.44342
0.378723
0.232544
-0.0180054
-0.319214
-0.437012
-0.335388
-0.169373
-0.0610352
0.0271606
0.0515747
0.0521851
-0.0253296
-0.135803
-0.105591
-0.0372314
0.00213623
0.0476074
0.00213623
-0.0863647
-0.154419
-0.127869
-0.106506
-0.0595093
-0.0231934
-0.022583
-0.045166
-0.0393677
-0.010376
-0.00213623
0.000305176
0.0177002
0.0534058
0.0485229
0.0253296
-0.00152588
-0.0128174
0.0100708
0.0302124
0.0109863
-0.0350952
0
0.0106812
-0.00305176
-0.0228882
-0.0335693
-0.0289917
-0.0134277
0.0378418
0.0723267
0.0869751
0.0881958
0.0979614
0.0750732
0.0570679
0.0582886
0.0799561
0.0662231
0.0491333
0.0506592
0.0393677
0.000915527
0.022583
0.0906372
0.158081
0.0875854
-0.0982666
-0.174255
-0.142822
-0.0811768
-0.0543213
-0.0415039
-0.0088501
0.0439453
0.0756836
0.0311279
0.0192261
0.0387573
0.0442505
-0.0338745
-0.0784302
-0.0866699
-0.0720215
-0.0933838
-0.085144
-0.0463867
-0.0198364
-0.0109863
-0.0222778
0.000305176
0.0463867
0.0613403
0.0732422
0.0601196
0.0512695
0.020752
-0.0320435
-0.0289917
-0.0161743
0
0.00946045
-0.0338745
-0.0436401
-0.015564
0.0192261
0.0552368
0.0527954
0.0317383
0.00488281
-0.0292969
-0.0308228
-0.0308228
-0.0198364
-0.00915527
-0.0317383
-0.00823975
0.0564575
0.167236
0.209351
0.229492
0.196838
0.138855
0.0308228
-0.115662
-0.166626
-0.11322
-0.0466919
-0.0128174
0.00457764
0.0259399
0.0250244
-0.015564
0.0088501
0.0558472
0.110168
0.0863647
0.0250244
-0.00762939
0.00854492
-0.0387573
-0.0335693
0.0289917
0.0250244
-0.0299072
-0.0805664
-0.0744629
-0.0521851
-0.0839233
-0.0698853
0.0219727
0.104675
0.13092
0.129089
0.0524902
-0.0372314
-0.0982666
-0.127563
-0.143433
-0.129395
-0.117798
-0.0704956
-0.0466919
-0.0219727
-0.0128174
-0.00915527
-0.0115967
-0.00854492
-0.0143433
-0.0140381
0
0.00366211
0.0167847
0.055542
0.0918579
0.188904
0.270386
0.31189
0.297546
0.187683
0.0125122
-0.108948
-0.141907
-0.117798
-0.027771
0.0637817
0.119934
0.102844
0.0485229
-0.00946045
-0.0979614
-0.134583
-0.140381
-0.105591
-0.112305
-0.104065
-0.0537109
-0.0241089
-0.0393677
-0.0534058
-0.0228882
0.000610352
0.0317383
0.0308228
0.00579834
-0.0106812
-0.00366211
0.0189209
0.0857544
0.112
0.167847
0.1828
0.144958
0.120544
0.0634766
-0.0549316
-0.131836
-0.150146
-0.127563
-0.0942993
-0.0582886
-0.0411987
-0.00488281
0.0192261
-0.0088501
0.0125122
0.0698853
0.0646973
0.0314331
0.00579834
-0.0326538
-0.00610352
0.0415039
0.072937
0.0839233
0.0793457
0.0454712
-0.0350952
-0.0772095
-0.0506592
-0.022583
-0.0222778
-0.032959
-0.0360107
-0.0292969
-0.0210571
0.00213623
-0.010376
-0.00183105
-0.00793457
-0.0198364
-0.0354004
-0.00244141
0.0375366
0.0509644
0.0363159
0.0323486
0.055542
0.0427246
0.0372314
0.0973511
0.158081
0.151978
0.121765
0.10437
0.100098
0.0732422
0.0253296
-0.0485229
-0.0576782
-0.0793457
-0.0982666
-0.0906372
-0.0372314
0.00671387
0.00854492
0.0350952
0.0802612
0.0671387
0.0289917
0.0253296
0.0485229
0.0750732
0.0769043
0.0524902
-0.06073
-0.124512
-0.0967407
-0.0384521
0.00152588
0.0180054
0.0100708
0.0177002
0.0167847
-0.0137329
-0.0802612
-0.138855
-0.126648
-0.0906372
-0.0634766
-0.0262451
0.0164795
0.0811768
0.109253
0.0933838
0.071106
-0.0192261
-0.0637817
-0.0317383
-0.0262451
-0.0161743
-0.00152588
-0.00183105
-0.00305176
-0.0088501
-0.0265503
-0.015564
-0.00549316
-0.00152588
0.0152588
0.0149536
0.0332642
0.0805664
0.102539
0.116577
0.108032
0.0808716
0.0375366
-0.0222778
-0.0286865
-0.0448608
-0.0222778
0.00335693
0.0158691
0.00762939
0.00946045
0.0234985
0.0131226
0.0125122
0.015564
0.0231934
0.0308228
0.027771
0.0305176
0.00152588
-0.0183105
0.0302124
0.0717163
0.101013
0.133362
0.158386
0.131836
0.0686646
0.0125122
0.0234985
0.00457764
-0.0531006
-0.055542
-0.0479126
0.0119019
-0.0354004
-0.0424194
-0.050354
-0.062561
-0.0320435
-0.00946045
0.0137329
0.0457764
0.0921631
0.145569
0.204773
0.214844
0.183716
0.0906372
0.0119019
-0.0228882
-0.0610352
-0.0131226
0.0686646
0.09552
0.0747681
0.017395
-0.0109863
-0.0198364
-0.0708008
-0.0646973
-0.0793457
-0.108032
-0.101318
-0.0799561
-0.0656128
-0.0619507
-0.0421143
-0.0296021
-0.0265503
-0.0299072
-0.00823975
0.00915527
0.0317383
0.039978
0.0595093
0.0854492
0.118103
0.157776
0.158081
0.110168
0.0668335
0.0167847
-0.00152588
-0.0167847
-0.0335693
0.00732422
0.0717163
0.14801
0.182495
0.170898
0.170593
0.101013
-0.0424194
-0.160217
-0.166931
-0.12207
-0.0521851
-0.00488281
0.0112915
0.0332642
0.0366211
0.0250244
-0.00274658
-0.0369263
-0.0283813
0.0180054
0.0576782
0.0897217
0.0918579
0.101624
0.0814819
0.0973511
0.136719
0.174866
0.205383
0.163269
0.062561
-0.0485229
-0.114136
-0.0848389
-0.0112915
0
0.00579834
0
-0.0588989
-0.0878906
-0.0527954
-0.0250244
0.0247192
0.0390625
0.0311279
0.0308228
0.027771
0.00518799
-0.0149536
0.0201416
0.102234
0.137634
0.137024
0.119019
0.093689
0.0927734
0.0668335
0.0827026
0.118713
0.123901
0.121765
0.0476074
-0.0341797
-0.0473022
-0.0595093
-0.0494385
-0.0869751
-0.0888062
-0.085144
-0.0418091
0.0549316
0.113525
0.133667
0.163574
0.172119
0.136414
0.0949097
0.0268555
-0.0088501
-0.00396729
-0.00762939
-0.0543213
-0.114441
-0.0921631
-0.0683594
-0.0411987
-0.0326538
-0.0250244
-0.0247192
-0.0128174
-0.00854492
0.0012207
0.0100708
0.0210571
0.032959
0.0692749
0.12207
0.160217
0.184631
0.175476
0.128479
0.0769043
-0.0491333
-0.09552
-0.0762939
-0.0506592
-0.0259399
-0.00671387
-0.00549316
0.0012207
-0.00518799
0.000305176
0.0164795
0.00579834
0.0128174
0.0253296
0.0521851
0.122681
0.117188
0.0558472
0.00671387
-0.0247192
-0.0601196
-0.11322
-0.0680542
0.00823975
0.038147
0.0283813
0.0119019
-0.00640869
-0.0357056
-0.0198364
0.0485229
0.142517
0.200806
0.232849
0.148926
0.193481
0.129089
0.00946045
-0.0473022
-0.0866699
-0.10376
-0.146179
-0.149536
-0.192566
-0.170593
-0.125427
-0.0958252
-0.0680542
-0.0463867
-0.0393677
-0.0228882
0.00396729
-0.0100708
-0.00762939
0.00152588
0.00427246
0.0140381
0.0326538
0.0341797
0.0393677
0.043335
0.0595093
0.0524902
0.0543213
0.0500488
0.0216675
-0.0289917
-0.00732422
0.038147
0.072937
0.0634766
0.0765991
0.0769043
0.055542
0.0567627
0.078125
0.0521851
-0.0317383
-0.0857544
-0.0750732
-0.0509644
-0.0241089
0.0119019
0.0161743
-0.0308228
-0.0927734
-0.127258
-0.101318
-0.0723267
-0.0540161
-0.0524902
-0.06073
-0.06073
-0.0558472
-0.0619507
-0.0790405
-0.0509644
-0.0112915
0.0259399
0.045166
0.0546265
0.0592041
0.0558472
0.0491333
0.0680542
0.144043
0.149841
0.0888062
0.0213623
-0.0802612
-0.136414
-0.195923
-0.224915
-0.220642
-0.204773
-0.170898
-0.117188
-0.0805664
-0.0320435
0.00549316
0.0326538
-0.00549316
-0.0463867
-0.0634766
-0.0634766
-0.0494385
-0.0604248
-0.0634766
-0.0457764
-0.0350952
-0.0378418
-0.0296021
0.0280762
0.121765
0.176086
0.201111
0.229492
0.199585
0.0680542
-0.078125
-0.128174
-0.0961304
-0.0622559
-0.090332
-0.102539
-0.111084
-0.137634
-0.166931
-0.144958
-0.110474
-0.133667
-0.129089
-0.111389
-0.0942993
-0.0872803
-0.0665283
-0.0979614
-0.113831
-0.12085
-0.0979614
-0.0604248
-0.0402832
-0.0180054
-0.0344849
-0.0967407
-0.119934
-0.0930786
-0.0839233
-0.0942993
-0.0830078
-0.072937
-0.0927734
-0.0808716
-0.0961304
-0.0881958
-0.0808716
-0.0656128
-0.0732422
-0.116272
-0.157776
-0.154419
-0.142212
-0.13916
-0.115051
-0.0686646
-0.0320435
-0.0296021
-0.0134277
-0.0180054
-0.0509644
-0.123291
-0.188293
-0.160217
-0.0949097
-0.0357056
0.0100708
0.0335693
0.0274658
-0.0256348
-0.101624
-0.102234
-0.138855
-0.152588
-0.137329
-0.134583
-0.162354
-0.184326
-0.183411
-0.140076
-0.0915527
-0.0396729
0.0521851
0.143738
0.185242
0.145569
0.0531006
-0.0964355
-0.312195
-0.363159
-0.296326
-0.254211
-0.187073
-0.119324
-0.126648
-0.143433
-0.13855
-0.151672
-0.176086
-0.235291
-0.263062
-0.235596
-0.185242
-0.159302
-0.135193
-0.0997925
-0.0463867
0.00213623
0.0360107
0.0500488
0.0619507
0.00183105
-0.0662231
-0.10437
-0.123901
-0.166626
-0.19165
-0.226746
-0.217896
-0.227356
-0.25238
-0.207825
-0.164185
-0.135803
-0.121765
-0.120239
-0.127563
-0.127563
-0.108337
-0.10376
-0.0894165
-0.108337
-0.0811768
-0.0689697
-0.0769043
-0.0881958
-0.0753784
-0.0549316
-0.0698853
-0.0894165
-0.0769043
-0.0881958
-0.143127
-0.197449
-0.222473
-0.221252
-0.176392
-0.143127
-0.118713
-0.104065
-0.0628662
-0.0430298
-0.0619507
-0.0857544
-0.0796509
-0.0344849
0.0360107
0.105286
0.131226
0.105591
0.0595093
-0.0720215
-0.229187
-0.354309
-0.340576
-0.265503
-0.192566
-0.149536
-0.117493
-0.0823975
0.00732422
0.0701904
0.116272
0.145569
0.144043
0.0778198
-0.0439453
-0.0930786
-0.0869751
-0.11322
-0.175476
-0.28595
-0.296021
-0.238037
-0.215149
-0.202026
-0.16449
-0.145569
-0.127258
-0.11322
-0.0991821
-0.0915527
-0.0869751
-0.0778198
-0.0637817
-0.0564575
-0.062561
-0.045166
0.00732422
0.039978
0.0888062
0.102234
0.0814819
0.0286865
-0.0509644
-0.134277
-0.158997
-0.106201
-0.0735474
-0.0610352
-0.0637817
-0.0518799
-0.0357056
-0.0366211
-0.0274658
-0.0369263
-0.0372314
-0.022583
-0.0338745
-0.0799561
-0.102844
-0.0994873
-0.0802612
-0.0283813
0.0357056
0.0875854
0.0930786
0.0811768
0.0537109
0.0396729
0.0637817
0.107727
0.137634
0.13855
0.11322
0.0537109
0.0927734
0.2005
0.295105
0.386963
0.472107
0.505066
0.359802
0.119629
-0.0982666
-0.202026
-0.23468
-0.32074
-0.293579
-0.178833
-0.0888062
-0.022583
0.0112915
0.0338745
0.0653076
0.0906372
0.111084
0.106812
0.0894165
0.0909424
0.0872803
0.118408
0.152283
0.190735
0.215454
0.235901
0.203857
0.150452
0.117188
0.072937
0.0772095
0.106506
0.135193
0.165405
0.18158
0.19928
0.210571
0.205078
0.14679
0.111389
0.144043
0.180664
0.164185
0.145569
0.135193
0.160522
0.171509
0.155334
0.136108
0.130005
0.157166
0.170898
0.190125
0.20813
0.224304
0.241089
0.250244
0.247192
0.229797
0.236511
0.256958
0.298462
0.403748
0.449829
0.424194
0.32135
0.221252
0.111084
0.0628662
0.090332
0.110779
0.146484
0.177917
0.169983
0.12085
0.0460815
0.0341797
0.0708008
0.107117
0.140991
0.155945
0.197449
0.256042
0.357666
0.450745
0.454407
0.424805
0.367737
0.263977
0.118408
-0.00762939
0.000915527
0.0964355
0.114136
0.0616455
0.0717163
0.12146
0.170898
0.180664
0.136414
0.107727
0.0939941
0.0128174
-0.0137329
0.00244141
0.0341797
0.0521851
0.0738525
0.0912476
0.108032
0.125427
0.129089
0.137634
0.141907
0.140686
0.13855
0.13916
0.119019
0.115967
0.122375
0.136108
0.137024
0.147705
0.15564
0.177002
0.220947
0.240479
0.244751
0.215149
0.160217
0.157471
0.176392
0.142822
0.083313
0.0564575
0.0860596
0.0543213
0.0299072
0.0283813
0.0164795
0.0247192
0.0170898
0.038147
0.0582886
0.0531006
0.0616455
0.0820923
0.125427
0.115662
0.0970459
0.114136
0.145264
0.18219
0.132446
0.110474
0.0827026
0.0479126
0.0549316
-0.0375366
-0.101624
-0.110168
-0.13031
-0.161743
-0.119629
-0.0640869
-0.039978
-0.045166
-0.0369263
-0.0186157
0.000305176
0.0164795
0.0695801
0.104065
0.0866699
0.067749
0.0628662
0.106506
0.0750732
0.0784302
0.118103
0.142212
0.0814819
0.0442505
0.072937
0.093689
0.0125122
-0.0326538
-0.00610352
0.0170898
0.0170898
-0.0170898
0.000915527
0.00610352
-0.055542
-0.0967407
-0.140076
-0.162964
-0.159302
-0.137939
-0.0866699
-0.0369263
-0.0189209
0.00152588
0.00488281
0.0100708
0.020752
-0.00671387
-0.0378418
-0.0543213
-0.0595093
-0.0653076
-0.072937
-0.0546265
-0.00946045
0.0259399
0.0558472
0.0656128
0.0671387
0.0701904
0.0219727
-0.0296021
-0.0308228
-0.00946045
-0.0338745
-0.0418091
-0.0283813
0.00579834
0.0256348
0.0476074
0.0634766
0.0692749
0.119019
0.115662
0.0805664
0.0308228
0.0238037
-0.0134277
-0.0796509
-0.0891113
-0.143127
-0.159607
-0.121765
-0.055542
-0.0482178
-0.0271606
0.00671387
-0.00915527
-0.0189209
-0.0354004
-0.055542
-0.0323486
0.00305176
0.015564
0.0427246
0.0689697
0.0393677
0.0189209
0.0189209
0.00396729
-0.0149536
-0.0650024
-0.0674438
-0.0476074
-0.0247192
-0.00274658
0.0561523
0.09552
0.121155
0.136414
0.101013
0.062561
-0.00793457
-0.0616455
-0.0332642
0.0247192
0.0646973
0.0445557
0.0726318
0.124207
0.18158
0.122986
0.0634766
0.0305176
-0.0442505
-0.143127
-0.143738
-0.0869751
-0.0198364
0.0192261
0.0424194
0.0289917
0.0115967
0.00305176
-0.00640869
0.00488281
0.0390625
0.118408
0.191956
0.192566
0.176697
0.176697
0.119324
0.0424194
-0.0106812
-0.0305176
-0.0109863
-0.0430298
-0.0686646
-0.0540161
-0.0274658
-0.0152588
-0.0119019
0.0134277
0.0265503
0.0183105
0.0198364
0.06073
0.0912476
0.112305
0.109863
0.102234
0.0772095
0.00488281
-0.00610352
0.0183105
0.0427246
0.0732422
0.115051
0.107117
0.158386
0.238342
0.25238
0.195618
0.133057
0.0939941
0.055542
-0.022583
-0.0271606
0.0262451
0.0616455
0.0170898
-0.0921631
-0.169983
-0.201721
-0.158997
-0.0982666
-0.050354
-0.017395
-0.022583
-0.0140381
-0.0128174
-0.0186157
-0.0140381
-0.00457764
0.0253296
0.0616455
0.0881958
0.110474
0.113525
0.101013
0.0650024
-0.0228882
-0.0686646
-0.0491333
-0.0222778
-0.00671387
0.0326538
0.0842285
0.127258
0.145264
0.135193
0.128479
0.0344849
-0.06073
-0.0805664
-0.0436401
-0.0161743
0
0.0289917
0.0289917
-0.00427246
-0.0384521
-0.0430298
-0.0234985
0.0274658
0.0698853
0.0698853
0.0695801
0.0701904
0.0775146
0.0524902
0.0201416
0
0.0012207
0.00518799
0.0164795
0.0354004
0.0888062
0.134888
0.19165
0.221863
0.206604
0.157166
0.0686646
0.0784302
0.0775146
0.0308228
-0.0158691
-0.0634766
-0.0674438
-0.0344849
0.00854492
0.043335
0.10437
0.131836
0.116882
0.00579834
-0.119629
-0.123901
-0.0531006
-0.00366211
-0.0982666
-0.140381
-0.135498
-0.109863
-0.0588989
-0.0314331
-0.0161743
-0.0177002
-0.015564
-0.00823975
-0.0460815
-0.090332
-0.0784302
-0.0735474
-0.0588989
-0.0256348
-0.0131226
-0.00213623
0.00183105
0.0109863
0.00244141
0.0158691
0.0262451
0.0537109
0.0811768
0.0848389
0.0765991
0.0527954
0.017395
0.00854492
0.00671387
0.0500488
0.126038
0.119019
0.107727
0.0753784
-0.00366211
-0.105286
-0.228882
-0.19043
-0.148315
-0.0970459
-0.0454712
-0.00671387
-0.0161743
-0.0320435
-0.0271606
-0.0271606
-0.0317383
-0.045166
-0.0784302
-0.0762939
-0.0384521
-0.017395
0.0192261
0.0415039
0.0363159
0.0619507
0.0656128
0.0445557
0.0265503
-0.0167847
-0.050354
-0.0906372
-0.110168
-0.123596
-0.11261
-0.0756836
-0.0308228
0.0012207
-0.00152588
0.0186157
0.0341797
-0.0396729
-0.115051
-0.0924683
-0.0415039
-0.0466919
-0.0845337
-0.101624
-0.144043
-0.185852
-0.1651
-0.113525
-0.0592041
-0.0454712
-0.0448608
-0.00701904
0.0341797
0.0262451
-0.0131226
-0.0540161
-0.0610352
-0.0842285
-0.116272
-0.158081
-0.1474
-0.161133
-0.171814
-0.159302
-0.12146
-0.102234
-0.0982666
-0.0891113
-0.0582886
-0.0265503
-0.00244141
-0.00488281
-0.00457764
-0.015564
-0.0430298
-0.0457764
-0.0238037
-0.0357056
-0.0543213
-0.0341797
-0.0662231
-0.139465
-0.138245
-0.0457764
0.0289917
0.03479
0.0167847
0.0167847
-0.0369263
-0.179138
-0.227661
-0.169983
-0.104675
-0.0665283
-0.0372314
-0.0271606
-0.0418091
-0.0866699
-0.119629
-0.121765
-0.10376
-0.0753784
-0.0506592
-0.00640869
0.0289917
0.0366211
0.0469971
0.0650024
0.0723267
0.0216675
-0.0262451
-0.0476074
-0.0592041
-0.100403
-0.118103
-0.0918579
0.0469971
0.0997925
0.137634
0.114441
0.0875854
-0.0289917
-0.131836
-0.128479
-0.100403
-0.0866699
-0.0772095
-0.0485229
-0.0167847
0.0115967
0.0292969
0.0222778
0.0259399
-0.0198364
-0.0698853
-0.0772095
-0.03479
-0.00152588
0.0170898
0.00549316
-0.0228882
-0.0228882
0.00701904
0.0460815
0.0668335
0.0634766
0.0457764
0.00915527
-0.022583
-0.0430298
-0.0717163
-0.072937
-0.00732422
0.0765991
0.106812
0.0839233
0.0323486
0.0286865
0.0543213
0.0534058
0.0204468
-0.0210571
-0.0289917
0.0012207
0.0238037
0.0454712
0.0582886
0.0769043
0.0570679
0.0332642
-0.0314331
-0.0262451
-0.015564
-0.0161743
0.0167847
0.0280762
0.0192261
0.0509644
0.111389
0.201416
0.259094
0.285339
0.296326
0.278625
0.126648
-0.0881958
-0.224915
-0.191345
-0.199585
-0.14801
-0.0619507
-0.00457764
0.0134277
0.00457764
0.0140381
-0.00274658
-0.0656128
-0.0543213
-0.0558472
-0.0772095
-0.0820923
-0.0830078
-0.0668335
-0.0292969
-0.00610352
0.0375366
0.067749
0.0860596
0.0900269
0.0958252
0.0698853
0.0357056
-0.0012207
-0.00396729
0.000305176
0.0161743
0.0656128
0.109558
0.140686
0.121155
0.0933838
0.0735474
0.0317383
-0.00823975
0.00579834
0.0454712
0.0393677
0.00549316
-0.0198364
-0.0286865
-0.0140381
0.0100708
0.00366211
0.0253296
0.0473022
0.0549316
0.0735474
0.0765991
0.0848389
0.0802612
0.0772095
0.0732422
0.104065
0.140076
0.19165
0.232239
0.219727
0.149841
0.0695801
0.00823975
-0.0402832
-0.0131226
0.0515747
0.0534058
0.0012207
-0.0549316
-0.0375366
-0.0128174
-0.0143433
-0.0100708
0.0311279
0.0543213
0.0704956
0.0973511
0.122375
0.120239
0.0588989
0.00518799
-0.0375366
-0.101013
-0.0921631
-0.0686646
-0.0552368
-0.0527954
-0.0274658
0.00457764
0.0418091
0.0775146
0.118713
0.20874
0.247803
0.19043
0.102539
0.112
-0.0115967
-0.1828
-0.222778
-0.139771
-0.0469971
0.010376
0.0338745
0.0408936
0.0378418
0.00335693
-0.0222778
-0.0338745
-0.00640869
0.0222778
0.0506592
0.0524902
0.0405884
0.0476074
0.0735474
0.0595093
0.00213623
0.0494385
0.0692749
0.0830078
0.09552
0.159912
0.205383
0.181274
0.115051
0.0567627
-0.0308228
-0.1474
-0.148621
-0.0759888
0.0164795
0.0411987
0.0527954
0.0421143
0.0457764
0.0350952
0.0137329
0.0183105
0.0497437
0.085144
0.0848389
0.0549316
0.000915527
-0.0387573
-0.0491333
-0.0296021
0.00213623
-0.0189209
0.00152588
0.0186157
0.0204468
0.0146484
0.0262451
0.0765991
0.124207
0.163269
0.179443
0.140991
0.0836182
-0.00213623
-0.0268555
0.00213623
0.0271606
0.0231934
0.0186157
-0.0448608
-0.09552
-0.0839233
-0.045166
-0.0210571
-0.00610352
-0.00488281
-0.0088501
0.0112915
0.0274658
0.0448608
0.101013
0.128479
0.128784
0.120544
0.122681
0.0875854
-0.0167847
-0.123901
-0.188293
-0.117188
-0.0244141
0.0164795
0.0311279
0.0375366
0.0515747
0.0216675
-0.0448608
-0.0881958
-0.0869751
-0.0564575
-0.0460815
0.00213623
0.0244141
0.0244141
0.0323486
0.0338745
0.0369263
0.0570679
0.0857544
0.0842285
0.00244141
-0.111694
-0.114136
-0.0735474
-0.0439453
-0.0238037
-0.0119019
-0.0131226
0.0177002
0.0186157
-0.00457764
0.0100708
0.0317383
0.0402832
0.0189209
-0.0421143
-0.0442505
-0.0088501
0.0219727
0.045166
0.0738525
0.0921631
0.0942993
0.0720215
0.0250244
0.000610352
-0.0402832
-0.0997925
-0.108337
-0.0802612
-0.0634766
-0.043335
0.0100708
0.0344849
0.0265503
0.0466919
0.039978
0.0149536
0.00610352
0.0271606
0.0247192
0.0204468
0.0454712
0.0875854
0.067749
0.0210571
0.0363159
0.0915527
0.0891113
0.0704956
0.0473022
0.0308228
-0.00854492
-0.0372314
-0.00823975
0.0338745
0.0253296
0.00701904
-0.0305176
-0.130615
-0.18219
-0.153809
-0.105896
-0.0646973
-0.0360107
-0.0390625
-0.0283813
-0.0143433
-0.00732422
-0.00946045
0.00396729
0.0280762
0.0485229
0.0592041
0.0256348
-0.0119019
-0.0192261
-0.0140381
-0.00579834
0.0100708
0.0146484
0.0314331
0.0454712
0.00213623
-0.0234985
-0.0198364
-0.0402832
-0.0604248
-0.0756836
-0.0283813
0.0170898
0.0167847
0
0.012207
0.0335693
0.0723267
0.110168
0.149536
0.157166
0.103455
-0.0088501
-0.0674438
-0.0518799
-0.072937
-0.0772095
-0.0350952
0.0567627
0.143738
0.151672
0.135193
0.0973511
0.0143433
-0.0888062
-0.168457
-0.178833
-0.145874
-0.107727
-0.0723267
-0.0527954
-0.0238037
0.0012207
0.0119019
0.0598145
0.105591
0.113525
0.0979614
0.0930786
0.0869751
0.0375366
0.000915527
0.0271606
0.0128174
-0.0332642
-0.0317383
-0.0360107
-0.0842285
-0.117798
-0.112915
-0.0891113
-0.057373
-0.0360107
0.017395
0.0354004
0.039978
0.00152588
-0.0845337
-0.139465
-0.109253
-0.0286865
0.00640869
0.0350952
0.0769043
0.10437
0.0778198
-0.0088501
-0.107727
-0.133972
-0.130615
-0.085144
-0.0402832
-0.00762939
0
-0.00823975
-0.0180054
-0.0479126
-0.0393677
0.00244141
0.0268555
0.0289917
0.00488281
-0.0256348
-0.0601196
-0.0662231
-0.0460815
-0.020752
0.00152588
0.00732422
0.0143433
-0.0149536
-0.0506592
-0.0473022
-0.0515747
-0.0689697
-0.0601196
-0.0515747
-0.038147
0.0119019
0.0515747
0.0637817
0.0915527
0.0897217
0.0680542
0.0189209
-0.0250244
-0.015564
-0.00335693
0.012207
0.015564
-0.022583
-0.0137329
0.00274658
0
-0.0152588
-0.0491333
-0.0662231
-0.0784302
-0.0994873
-0.122375
-0.0964355
-0.078125
-0.0650024
-0.0463867
-0.0427246
-0.0534058
-0.0332642
0.00823975
0.0610352
0.0827026
0.123901
0.126648
0.085144
0.0378418
0.0311279
-0.0134277
-0.0805664
-0.101929
-0.0820923
-0.0518799
-0.0579834
-0.0656128
-0.0271606
-0.0128174
-0.0402832
-0.105896
-0.149231
-0.122681
-0.0970459
-0.0680542
-0.0527954
-0.0366211
-0.0164795
0.00213623
0.0140381
0.0241089
0.0158691
0.00671387
0.020752
0.0289917
0.043335
0.0280762
-0.027771
-0.0463867
-0.0558472
-0.0927734
-0.0723267
-0.0360107
-0.0268555
-0.0540161
-0.0759888
-0.0924683
-0.101624
-0.0787354
-0.0421143
-0.0518799
-0.0143433
0.0286865
0.0595093
0.0863647
0.0869751
0.032959
-0.00732422
-0.0189209
0.0128174
0.0280762
-0.0167847
-0.0317383
0.0119019
0.0488281
-0.0308228
-0.131836
-0.144043
-0.12085
-0.142822
-0.135193
-0.0643921
0.00671387
0.0872803
0.126343
0.16571
0.140381
0.0735474
0.032959
-0.0595093
-0.117188
-0.0894165
-0.045166
0.0253296
0.0524902
0.0524902
-0.00244141
-0.0897217
-0.123291
-0.0827026
-0.0372314
-0.043335
-0.0549316
-0.071106
-0.0863647
-0.0765991
-0.0186157
0.0146484
0.015564
-0.00152588
-0.0323486
-0.0912476
-0.0918579
-0.0631714
-0.0396729
-0.0308228
-0.0308228
0.000610352
0.0561523
0.0827026
0.0576782
0.0244141
0.0183105
-0.0302124
-0.0790405
-0.0808716
-0.0302124
-0.0119019
0.0143433
0.0341797
0.050354
0.0704956
0.0790405
0.0741577
0.00701904
-0.0366211
-0.0183105
0.010376
-0.00640869
-0.0183105
-0.0201416
-0.0119019
-0.0140381
-0.0320435
-0.0537109
-0.0637817
-0.0408936
-0.0152588
-0.00183105
0.00152588
0.0112915
0.0119019
-0.0112915
-0.0161743
0.000305176
-0.0100708
0.00274658
0.015564
0.0119019
-0.0109863
-0.0259399
-0.0283813
0.0338745
0.110474
0.172729
0.191345
0.173645
0.150452
0.124207
0.0360107
-0.0112915
0.0271606
0.0561523
0.000610352
-0.0408936
-0.0915527
-0.0827026
-0.0509644
-0.0210571
-0.0161743
-0.0466919
-0.0549316
-0.0747681
-0.0817871
-0.0723267
-0.0463867
-0.0210571
-0.00335693
0.00579834
0.0247192
0.0460815
0.0564575
0.0656128
0.117493
0.174866
0.222473
0.234375
0.2005
0.148621
0.0308228
-0.110779
-0.137634
-0.102539
-0.102844
-0.121155
-0.0994873
-0.0241089
0.0671387
0.110474
0.108948
0.0930786
0.0582886
-0.0149536
-0.0698853
-0.0747681
-0.0961304
-0.0845337
-0.0689697
-0.0375366
-0.0247192
-0.0222778
-0.0161743
0.0149536
0.0637817
0.0509644
0.0152588
0.00946045
0.0317383
0.038147
0.0183105
0.0204468
0.0366211
0.09552
0.128479
0.167847
0.188293
0.22522
0.175476
0.071106
-0.0521851
-0.100708
-0.0811768
-0.0177002
0.0100708
-0.0180054
-0.0518799
-0.0790405
-0.0619507
-0.0262451
-0.0213623
0.00274658
-0.00305176
-0.00610352
0.00457764
0.0192261
0.0375366
0.0592041
0.0521851
0.043335
0.0457764
0.0137329
0.0289917
0.0271606
0.0509644
0.0857544
0.110474
0.107117
0.0878906
0.0997925
0.137939
0.164795
0.198669
0.168152
0.0787354
-0.0354004
-0.130005
-0.12207
-0.0390625
-0.0296021
-0.0515747
-0.0283813
0.0354004
0.057373
0.0256348
0.0149536
0.00213623
0.00762939
-0.0305176
-0.0808716
-0.0759888
-0.0350952
-0.00701904
-0.00640869
0.000915527
0.00244141
0.00335693
0.0131226
0.0323486
0.0183105
0.0170898
0.0402832
0.0518799
0.0601196
0.0564575
0.0482178
0.0552368
0.0546265
0.0500488
0.09552
0.177612
0.261536
0.291443
0.299683
0.260925
0.142822
-0.0384521
-0.185852
-0.230713
-0.231934
-0.189209
-0.105591
0.00335693
0.0720215
0.085144
0.0701904
0.0244141
-0.0598145
-0.139465
-0.138245
-0.115967
-0.0775146
-0.0500488
0.027771
0.0799561
0.085144
0.0622559
0.057373
0.0338745
-0.0253296
-0.13855
-0.133667
-0.0924683
-0.0698853
-0.0646973
-0.0393677
-0.00518799
-0.0119019
-0.020752
0.0100708
0.0460815
0.0680542
0.0695801
0.0497437
0.0369263
0.0149536
-0.0164795
-0.0421143
-0.0418091
-0.0286865
0.00183105
0.0460815
0.0564575
0.0231934
-0.0100708
-0.0186157
0.00457764
-0.0564575
-0.090332
-0.0585938
-0.0149536
0.0262451
0.0665283
0.0778198
0.108948
0.129395
0.111389
0.0494385
0.00183105
-0.0222778
-0.0521851
-0.0714111
-0.0549316
-0.00213623
0.0442505
0.0543213
0.057373
0.0012207
-0.140076
-0.225525
-0.217896
-0.172119
-0.13916
-0.0979614
-0.0894165
-0.0820923
-0.0405884
-0.0234985
-0.00732422
0.015564
0.0320435
0.0436401
0.0506592
0.0411987
0.00946045
-0.0350952
-0.0531006
-0.0717163
-0.0747681
-0.0448608
-0.0167847
0.0186157
0.0668335
0.0796509
0.043335
0.0189209
0.00701904
-0.0253296
-0.088501
-0.0933838
-0.0610352
-0.0195312
0.0222778
0.0714111
0.0900269
0.0772095
0.0485229
0.0289917
-0.00488281
-0.0491333
-0.0540161
-0.0088501
0.0723267
0.0918579
0.0735474
0.0738525
0.0482178
-0.0296021
-0.1297
-0.132751
-0.119019
-0.0878906
-0.0656128
-0.0656128
-0.0411987
0.00335693
0.0546265
0.0622559
0.0698853
0.0942993
0.0747681
0.00183105
-0.0149536
-0.0146484
-0.0302124
-0.0457764
-0.100098
-0.116577
-0.0942993
-0.0616455
-0.0262451
-0.00396729
0.00335693
0.00640869
0.0250244
0.0448608
0.0198364
-0.0408936
-0.0802612
-0.0756836
-0.0714111
-0.0750732
-0.0686646
-0.0558472
-0.0491333
-0.0354004
-0.022583
-0.0152588
-0.00854492
0.0164795
0.0262451
0.0375366
0.0674438
0.122986
0.111389
0.0738525
-0.0262451
-0.0646973
-0.0128174
0.00854492
0.0119019
0.022583
0.0314331
0.0244141
0.0164795
-0.0256348
-0.0918579
-0.118408
-0.071106
-0.0177002
0.0222778
0.027771
0.0262451
0.0314331
0.0299072
0.0524902
0.113525
0.158386
0.148621
0.119324
0.0521851
-0.0286865
-0.133057
-0.104675
-0.00640869
0.101929
0.154419
0.104675
0.0366211
0.00946045
-0.055542
-0.171204
-0.215149
-0.196228
-0.149536
-0.116272
-0.0704956
-0.0515747
-0.0427246
-0.0350952
-0.0231934
-0.0436401
-0.0332642
-0.0268555
-0.0125122
-0.0210571
-0.0198364
-0.022583
-0.00457764
0.0134277
0.0524902
0.0796509
0.0799561
0.0863647
0.0811768
0.0604248
0.000915527
-0.0198364
-0.0234985
-0.0442505
-0.0714111
-0.0924683
-0.0680542
-0.0311279
-0.0250244
0.0192261
0.0570679
0.0784302
0.0906372
0.0787354
0.0726318
0.0341797
-0.012207
-0.020752
0.00488281
0.0256348
0.0350952
0.0485229
0.0234985
0.0427246
0.050354
0.0256348
-0.00671387
0.00396729
-0.00244141
-0.0354004
-0.0149536
0.0335693
0.0668335
0.0946045
0.0808716
0.0592041
0.0228882
0.0463867
-0.00793457
-0.101624
-0.121155
-0.0601196
-0.0460815
-0.00396729
0.00518799
0.0140381
0.0244141
0.0259399
0.0402832
0.0402832
0.0378418
-0.0143433
-0.0509644
-0.0723267
-0.114746
-0.0982666
-0.0765991
-0.0457764
-0.0158691
0.00213623
0.0012207
-0.0421143
-0.0805664
-0.0839233
-0.0515747
-0.0186157
0.00732422
0.0338745
0.027771
0.00244141
-0.0338745
-0.0418091
-0.0366211
-0.012207
-0.0125122
-0.0119019
0.00701904
0.0402832
0.0466919
0.0512695
0.0445557
-0.0161743
-0.0411987
-0.0326538
-0.0201416
0
0.0109863
-0.00610352
-0.0262451
-0.015564
-0.0137329
0.0137329
0.0250244
0.0350952
0.0311279
0.0646973
0.057373
0.0820923
0.147705
0.189514
0.203552
0.169067
0.171814
0.148926
0.0418091
-0.0552368
-0.0894165
-0.112
-0.13031
-0.0698853
-0.0308228
-0.0509644
-0.0485229
-0.0836182
-0.11322
-0.11322
-0.0970459
-0.122986
-0.169678
-0.1474
-0.0888062
-0.0119019
0.0119019
0.0149536
0.017395
0.00152588
-0.00854492
-0.00427246
0.0115967
0.0286865
0.0326538
0.0549316
0.0448608
-0.000305176
-0.0357056
-0.0244141
-0.012207
-0.0106812
0.0296021
0.0421143
0.0338745
0.0305176
0.027771
-0.0137329
-0.038147
-0.0125122
0.0653076
0.152588
0.189514
0.201111
0.194397
0.163574
0.0900269
-0.0344849
-0.055542
-0.0271606
-0.00671387
-0.0088501
-0.043335
-0.0759888
-0.0283813
0.0390625
0.0918579
0.0961304
0.0778198
0.0189209
-0.00427246
0.0253296
0.0820923
0.0891113
0.108948
0.121765
0.0286865
-0.13092
-0.191956
-0.13031
-0.0680542
-0.0213623
0.0320435
0.0643921
0.0582886
0.0192261
-0.0112915
-0.010376
0.0112915
0.00946045
-0.0808716
-0.135498
-0.104675
-0.0817871
-0.083313
-0.0830078
-0.0698853
-0.0537109
-0.0360107
0.022583
0.0674438
0.0723267
0.0598145
0.0549316
0.0415039
-0.0238037
-0.09552
-0.102234
-0.0811768
-0.0512695
-0.0473022
-0.0354004
-0.0286865
-0.0183105
-0.0231934
-0.0262451
-0.0146484
0.0152588
0.0152588
-0.0088501
0
0.00762939
0.0119019
0.0115967
0.000610352
-0.00183105
0.00213623
0.0137329
0.0216675
0.0473022
0.124512
0.170288
0.207214
0.209351
0.209656
0.176392
0.104675
0.0369263
-0.00701904
0
-0.0308228
-0.135193
-0.209045
-0.198059
-0.141602
-0.090332
-0.0534058
-0.00244141
0.03479
0.0479126
0.0323486
-0.00946045
-0.00610352
-0.0231934
0.0109863
0.0881958
0.132141
0.124817
0.0680542
0.0357056
-0.00823975
-0.108948
-0.111694
-0.090332
-0.0595093
-0.0357056
-0.0485229
-0.0668335
-0.0497437
-0.0247192
-0.0088501
0.0357056
0.0668335
0.0704956
0.0949097
0.131531
0.118408
0.0634766
0.000610352
-0.038147
-0.0704956
-0.0900269
-0.108643
-0.0906372
-0.0717163
-0.0836182
-0.112915
-0.0796509
-0.0112915
0.0646973
0.106812
0.133667
0.1297
0.0912476
0.0506592
-0.0454712
-0.0515747
0.00671387
0.0509644
0.0643921
0.0479126
0.0534058
0.0119019
-0.0579834
-0.0439453
0.0189209
0.0494385
0.0668335
0.0634766
0.0454712
0.0335693
0.0292969
0.0131226
0.0012207
0.00701904
0.00823975
0.0527954
0.0775146
0.116882
0.115967
0.0921631
0.108337
0.0640869
0.00732422
-0.017395
0.017395
0.0549316
0.0946045
0.111389
0.151978
0.162048
0.143433
0.065918
0.0210571
0
-0.0561523
-0.0311279
0.0216675
0.0643921
0.098877
0.119934
0.121155
0.0640869
0.00793457
0.0393677
0.0869751
0.131226
0.145569
0.17395
0.178528
0.169983
0.126343
0.0735474
0.0708008
0.0891113
0.071106
0.0247192
0.00946045
0.039978
0.115967
0.198975
0.256958
0.256958
0.220337
0.15564
0.0192261
-0.0476074
-0.0668335
-0.0582886
-0.0488281
-0.0558472
-0.0296021
0.0283813
0.085144
0.133057
0.168457
0.171509
0.16449
0.112915
0.03479
0.0088501
0.0195312
-0.00366211
0
0.0201416
0.0460815
0.0692749
0.0646973
0.0686646
0.0958252
0.128784
0.159607
0.161133
0.159912
0.133972
0.0802612
0.0338745
-0.00335693
-0.00427246
0.0247192
0.0473022
0.0558472
0.0506592
0.0454712
0.0289917
0.0332642
0.00213623
-0.00701904
0.0238037
0.0506592
0.0567627
0.11261
0.188904
0.228271
0.217285
0.164185
0.127869
0.0582886
-0.0161743
-0.0100708
0
-0.0180054
-0.0167847
-0.0146484
-0.0256348
-0.0997925
-0.0961304
-0.0723267
-0.0628662
-0.0622559
-0.0427246
-0.00274658
0.0521851
0.125427
0.210876
0.278625
0.299072
0.216064
0.0845337
-0.0442505
-0.211487
-0.281677
-0.231018
-0.166321
-0.102234
-0.0576782
-0.0387573
-0.0411987
-0.062561
-0.0820923
-0.0750732
-0.050354
-0.03479
-0.0527954
-0.0869751
-0.072937
-0.0527954
-0.0253296
-0.0299072
-0.0140381
0
-0.00579834
-0.0524902
-0.0897217
-0.0839233
-0.0622559
-0.0662231
-0.111084
-0.13031
-0.103455
-0.0820923
-0.0756836
-0.0753784
-0.0534058
-0.0546265
-0.0521851
-0.0479126
-0.0457764
-0.0390625
0.0149536
0.0900269
0.127869
0.172119
0.19165
0.129089
-0.00305176
-0.176697
-0.222473
-0.179443
-0.132751
-0.101929
-0.0726318
-0.0549316
-0.050354
-0.0692749
-0.0778198
-0.0814819
-0.0802612
-0.0894165
-0.0857544
-0.0686646
-0.0357056
-0.0125122
-0.0198364
-0.0296021
-0.0613403
-0.0714111
-0.0686646
-0.0741577
-0.0500488
0
0.039978
0.0674438
0.0396729
0.0183105
-0.0421143
-0.088501
-0.117188
-0.110474
-0.0860596
-0.0640869
-0.0518799
-0.0198364
-0.00518799
-0.00457764
0.017395
0.0192261
0.00946045
-0.00793457
-0.0363159
-0.0256348
-0.0012207
-0.00335693
-0.00762939
0.0100708
0.0222778
0.0164795
0.00335693
-0.00701904
-0.0201416
-0.0320435
-0.0332642
-0.0140381
-0.00579834
-0.0119019
-0.0119019
-0.0158691
-0.0137329
-0.00946045
-0.0357056
-0.0479126
-0.0088501
0.0311279
0.0537109
0.0506592
0.0234985
-0.0268555
-0.0299072
0.0286865
0.0979614
0.162964
0.203247
0.154724
0.0354004
-0.067749
-0.127258
-0.13916
-0.0906372
-0.0390625
0.00823975
0.0302124
0.0466919
0.0350952
0.0341797
0.0463867
0.0622559
0.0701904
0.0378418
0.0338745
0.067749
0.0332642
0.00488281
0.0320435
0.0817871
0.115356
0.0997925
0.0650024
0.0576782
0.0360107
-0.0186157
-0.072937
-0.071106
-0.0396729
-0.0204468
-0.027771
-0.0564575
-0.038147
-0.015564
0.00854492
0.0115967
0.0161743
0.0234985
0.0231934
0.00701904
0.00823975
0.0241089
0.015564
-0.00152588
0
0.0204468
0.0201416
0.0350952
0.0430298
0.06073
0.0509644
0.0506592
0.0558472
0.0497437
0.0604248
0.0769043
0.0549316
0.0491333
0.0479126
0.0317383
0
0.00640869
0.0427246
0.0125122
-0.0308228
-0.0244141
-0.0128174
-0.00396729
0.0180054
0.0360107
0.072937
0.0982666
0.11261
0.115967
0.0872803
0.0418091
-0.00518799
-0.00793457
-0.0131226
0.0149536
0.0442505
0.0668335
0.106812
0.113831
0.0805664
0.0326538
-0.0109863
0.00701904
0.0012207
0.0201416
0.0552368
0.0402832
-0.017395
-0.0469971
-0.0469971
-0.0323486
-0.0183105
-0.00183105
0.0588989
0.085144
0.0704956
0.0549316
0.0396729
0.0418091
-0.0137329
-0.0616455
-0.0119019
0.0222778
0.0341797
0.0152588
-0.00610352
-0.0372314
-0.0811768
-0.0869751
-0.0384521
0.00457764
0.0302124
0.0436401
0.0814819
0.115051
0.133972
0.141296
0.175171
0.196838
0.115662
0.0570679
0.045166
0.0265503
-0.0299072
-0.115662
-0.134583
-0.098877
-0.0772095
-0.062561
-0.0363159
-0.0189209
0.0134277
0.0137329
0.010376
-0.0338745
-0.0119019
0.0112915
0.0262451
0.0598145
0.0952148
0.11322
0.130615
0.0985718
0.078125
0.0576782
0.0247192
0.0177002
0.012207
-0.00610352
0.0244141
0.0445557
-0.0180054
-0.0665283
-0.0808716
-0.0979614
-0.0979614
-0.0839233
-0.0689697
-0.0393677
-0.0378418
-0.0323486
-0.00732422
0.00823975
-0.0012207
-0.0198364
-0.015564
-0.0198364
0.000305176
0.0439453
0.0967407
0.150452
0.180359
0.180969
0.141296
0.113525
0.0164795
-0.0167847
0.00946045
0.0662231
0.0958252
0.0680542
-0.0198364
-0.0961304
-0.134583
-0.107117
-0.0631714
-0.0231934
-0.0378418
-0.0418091
-0.0402832
-0.0201416
-0.0338745
-0.062561
-0.0646973
-0.0515747
-0.00305176
-0.0164795
-0.0189209
-0.039978
-0.0482178
-0.0643921
-0.0668335
-0.06073
-0.039978
-0.0436401
-0.0524902
-0.0448608
0.0158691
0.057373
0.0872803
0.102539
0.101013
0.078125
0.0012207
-0.0631714
-0.0811768
-0.0662231
-0.000915527
0.0296021
0.0384521
0.0195312
-0.0796509
-0.136108
-0.13855
-0.122986
-0.137634
-0.143127
-0.111084
-0.0619507
-0.0466919
-0.0411987
-0.027771
0.0350952
0.0717163
0.0564575
0.0296021
0.00671387
-0.0177002
-0.0588989
-0.118408
-0.111084
-0.0900269
-0.0692749
-0.0274658
-0.00946045
-0.0149536
-0.0125122
-0.0360107
-0.0857544
-0.104065
-0.0610352
-0.0268555
-0.0354004
-0.0143433
0.00793457
0.00579834
-0.0308228
-0.0805664
-0.10437
-0.0759888
0.00427246
0.0723267
0.127869
0.138245
0.0997925
0.0604248
-0.0765991
-0.143433
-0.137024
-0.152588
-0.158997
-0.154724
-0.127258
-0.0994873
-0.0784302
-0.0686646
-0.0686646
-0.0686646
-0.0585938
-0.0540161
-0.0460815
-0.0219727
0.00610352
-0.0143433
-0.0482178
-0.0344849
0.0204468
0.0231934
0.0192261
0.00213623
-0.0296021
-0.0692749
-0.126038
-0.118408
-0.072937
-0.0238037
0.0384521
0.104065
0.120544
0.0680542
0.0158691
-0.0222778
-0.0769043
-0.133362
-0.134888
-0.090332
-0.0570679
-0.0378418
-0.0405884
-0.0683594
-0.0961304
-0.118103
-0.0848389
-0.0518799
-0.0198364
-0.00579834
-0.0125122
-0.0137329
-0.0234985
-0.0250244
-0.020752
-0.00732422
0.0177002
0.0473022
0.0460815
0.0436401
0.0427246
0.0341797
0.0262451
0.0286865
0.0561523
0.102844
0.133362
0.111389
0.0820923
0.0512695
-0.00488281
-0.0549316
-0.119934
-0.159607
-0.132751
-0.0463867
0.0167847
0.0592041
0.10376
0.166626
0.152588
0.0534058
-0.0305176
-0.0680542
-0.0952148
-0.0875854
-0.0366211
0.0408936
0.101929
0.101929
0.0723267
0.0454712
0.027771
-0.0234985
-0.083313
-0.101929
-0.0830078
-0.0506592
0.00518799
0.0448608
0.0836182
0.102234
0.106506
0.115356
0.103149
0.0732422
0.00152588
-0.0723267
-0.0662231
0.0143433
0.0619507
0.0949097
0.111389
0.115051
0.131226
0.127258
0.0927734
0.0796509
0.057373
0.0213623
-0.0497437
-0.120239
-0.10376
-0.0390625
-0.00274658
0.00427246
0.00427246
0.0088501
0.0231934
0.0201416
0.0317383
0.0527954
0.0906372
0.138245
0.170898
0.197144
0.174255
0.122375
0.055542
-0.0241089
-0.0814819
-0.0808716
-0.0323486
0.0216675
0.0598145
0.0836182
0.0970459
0.0979614
0.0753784
0.0222778
-0.00518799
-0.0259399
-0.0430298
-0.00854492
0.0582886
0.124817
0.16449
0.180054
0.203857
0.224304
0.166931
0.0460815
0.00671387
0.0216675
0.0497437
0.020752
-0.00762939
-0.0164795
-0.0375366
-0.0445557
-0.0216675
0.020752
0.0497437
0.0524902
0.0372314
0.0421143
0.0158691
-0.00854492
0.000305176
0.0372314
0.0372314
0.0387573
0.0289917
-0.00274658
0.0158691
0.0701904
0.115967
0.158386
0.183716
0.168762
0.123291
0.039978
-0.0140381
-0.0848389
-0.0772095
-0.0238037
-0.00396729
-0.0177002
-0.0445557
-0.0317383
-0.0213623
0.0012207
0.00427246
0.00854492
0.0161743
0.0299072
0.0564575
0.0570679
0.0604248
0.045166
0.0457764
0.0378418
-0.00457764
0.00396729
0.0265503
0.0534058
0.057373
0.0244141
0.0131226
0.00518799
0.0125122
0.043335
0.105591
0.143127
0.126343
0.0979614
0.0750732
-0.0256348
-0.137024
-0.155945
-0.10498
-0.0634766
-0.0497437
-0.0686646
-0.0723267
-0.0283813
-0.00488281
0
0.0128174
0.0189209
0.0192261
0.00457764
-0.0158691
0.0335693
0.0967407
0.100403
0.103149
0.118713
0.1297
0.0753784
-0.0192261
-0.0012207
0.00183105
-0.0637817
-0.119629
-0.158386
-0.119934
-0.0967407
-0.0750732
-0.071106
-0.0479126
-0.0234985
-0.027771
-0.0341797
-0.0881958
-0.0836182
-0.0588989
-0.0170898
-0.0219727
-0.0509644
-0.0695801
-0.0741577
-0.0811768
-0.0704956
-0.0616455
-0.0698853
-0.0454712
-0.0244141
-0.00427246
-0.00793457
0.00213623
-0.0143433
-0.0189209
0.00305176
0.0390625
0.0753784
0.101624
0.111084
0.0848389
0.0650024
0.0292969
-0.0610352
-0.0970459
-0.0561523
-0.0421143
-0.0576782
-0.0701904
-0.0741577
-0.0564575
-0.0460815
-0.0363159
-0.0299072
-0.0198364
-0.0161743
0.00366211
0.0167847
0.0274658
0.0454712
0.0708008
0.107117
0.0933838
0.0784302
0.0631714
0.0460815
0.0378418
-0.0708008
-0.134277
-0.098877
-0.0442505
-0.0241089
-0.0314331
-0.0357056
-0.0436401
-0.0274658
0.0012207
0.0308228
0.057373
0.0946045
0.12207
0.125427
0.144958
0.112305
0.122375
0.11261
0.0640869
0.0216675
-0.015564
-0.0991821
-0.114746
-0.118408
-0.128479
-0.0637817
0.00335693
0.0512695
0.0463867
-0.0341797
-0.108948
-0.122681
-0.109253
-0.0750732
-0.050354
-0.0247192
-0.0119019
0.0177002
0.0643921
0.10437
0.107117
0.123596
0.12207
0.107727
0.0457764
-0.0579834
-0.0708008
-0.0439453
-0.0100708
0.0204468
0.0198364
-0.0140381
-0.0320435
-0.0320435
-0.00488281
0.00762939
0.0247192
0.0390625
0.0558472
0.0604248
0.0646973
0.0524902
0.0402832
0.0146484
0.0106812
0.00854492
-0.00518799
-0.00610352
0
0.00396729
0.015564
0.0393677
0.0552368
0.0970459
0.154114
0.197754
0.195312
0.171204
0.12146
0.0561523
-0.0219727
-0.0527954
-0.0241089
0.00366211
0.0088501
0.0143433
0.00946045
0.00488281
0.00488281
0.0457764
0.130615
0.217285
0.294495
0.356445
0.327148
0.238953
0.0845337
-0.0421143
-0.110474
-0.159607
-0.158386
-0.0704956
-0.0244141
-0.0500488
-0.102844
-0.117188
-0.0970459
-0.0714111
-0.0430298
-0.0152588
0.00213623
-0.00396729
0.00427246
-0.00823975
0.0149536
0.0216675
0.0601196
0.0814819
0.0793457
0.0384521
0.0363159
0.0366211
0.0509644
0.0314331
-0.043335
-0.0695801
-0.0598145
-0.0271606
0
0.0149536
0.0158691
0.00762939
0.00427246
-0.0146484
-0.027771
-0.0271606
-0.0152588
-0.00396729
0.0161743
0.0244141
0.022583
0.0204468
0.0234985
0.000610352
-0.0088501
-0.022583
-0.0256348
-0.0259399
-0.0198364
-0.0109863
-0.00152588
0.0442505
0.11261
0.143738
0.151062
0.123901
0.0704956
-0.0515747
-0.140686
-0.112
-0.0595093
-0.0241089
0.0140381
0.0234985
0.0320435
0.0430298
0.057373
0.0701904
0.0485229
0.0549316
0.0448608
-0.015564
-0.0326538
0.0534058
0.132751
0.0967407
0.0280762
-0.0274658
-0.0692749
-0.179138
-0.223694
-0.132751
-0.027771
0.0201416
0.0302124
0.0134277
-0.0161743
-0.0698853
-0.0991821
-0.072937
-0.0588989
-0.0588989
-0.045166
-0.0201416
0.0204468
0.0119019
0.0222778
0.0314331
0.0506592
0.0585938
0.0332642
0.0152588
0.0289917
0.0479126
0.0152588
-0.0372314
-0.137329
-0.141907
-0.131531
-0.108337
-0.098877
-0.0628662
-0.0454712
-0.0247192
0.00396729
0.032959
0.057373
0.0772095
0.0985718
0.109558
0.0497437
-0.0189209
-0.0448608
-0.0466919
-0.0476074
-0.0570679
-0.0695801
-0.039978
-0.00946045
0.0326538
0.06073
0.0558472
0.0448608
0.0610352
0.0537109
0.0201416
-0.0305176
-0.0296021
0.020752
0.0796509
0.0930786
0.169678
0.22583
0.243225
0.216064
0.153809
0.0485229
-0.111084
-0.213318
-0.200806
-0.158997
-0.151978
-0.116577
-0.0628662
-0.0198364
-0.0088501
0
0.0186157
0.0442505
0.0570679
0.0769043
0.0790405
0.0756836
0.0704956
0.0387573
-0.0494385
-0.12207
-0.0842285
-0.0515747
-0.0427246
-0.045166
-0.0372314
-0.0296021
-0.0143433
0.00823975
0.0201416
0.0289917
0.0418091
0.0442505
0.057373
0.0582886
0.0527954
0.0692749
0.06073
0.0637817
0.0570679
0.0314331
0.0323486
0.032959
0.0302124
0.00854492
0.0177002
0.0683594
0.0967407
0.0692749
0.0314331
0.0402832
0.012207
-0.0515747
-0.0881958
-0.102539
-0.0860596
-0.0598145
-0.0601196
-0.0524902
-0.0296021
-0.0146484
-0.017395
-0.000915527
-0.00366211
-0.0195312
-0.0283813
-0.0256348
-0.00823975
0.0012207
0.00946045
0.0088501
0.0149536
0.0311279
0.0219727
0.0216675
0.0259399
0.0219727
0.0210571
0.020752
0.0302124
0.0582886
0.0839233
0.098877
0.130615
0.187683
0.223083
0.201111
0.134277
0.0469971
-0.0341797
-0.120239
-0.19104
-0.186462
-0.126953
-0.0741577
-0.0497437
-0.0439453
-0.0723267
-0.0790405
-0.0723267
-0.0393677
-0.012207
-0.00213623
-0.0112915
-0.00946045
0.0164795
0.0704956
0.121155
0.135498
0.122986
0.0537109
0.0164795
-0.0137329
-0.0601196
-0.0579834
-0.00213623
0.0479126
0.0958252
0.118103
0.107117
0.0549316
0.027771
-0.0201416
-0.0588989
-0.0534058
-0.0299072
-0.0131226
0
0
-0.0170898
-0.0427246
-0.0811768
-0.130005
-0.11322
-0.0518799
-0.0137329
0.0286865
0.0439453
0.0576782
0.0595093
0.0500488
0.0524902
0.0296021
-0.00183105
-0.00732422
-0.00854492
-0.0167847
-0.0369263
-0.0268555
0.0314331
0.101318
0.137634
0.129089
0.106201
0.0842285
0.0320435
-0.0753784
-0.133057
-0.0796509
-0.0216675
0.0323486
0.0408936
0.0305176
-0.00976562
-0.0531006
-0.0601196
-0.0427246
-0.0231934
-0.00915527
-0.0100708
0.00213623
0.00335693
0.0137329
0.0320435
0.00427246
-0.0283813
-0.0714111
-0.071106
-0.0500488
-0.0387573
-0.0180054
-0.00946045
-0.0088501
-0.0128174
-0.0262451
-0.0390625
-0.0228882
-0.0106812
-0.0125122
-0.00640869
-0.00457764
0.0149536
0.0369263
0.0537109
0.0527954
0.0354004
0.0479126
0.0393677
0.0244141
-0.00274658
-0.0158691
-0.0299072
-0.0213623
0.027771
0.0506592
0.0613403
0.071106
0.0540161
0.0378418
-0.0140381
0.0119019
0.0704956
0.0631714
0.043335
0.0262451
-0.0210571
-0.0775146
-0.0769043
-0.0537109
-0.0650024
-0.0704956
-0.0473022
-0.0387573
-0.0222778
0.0265503
0.0701904
0.0906372
0.0930786
0.111694
0.119629
0.0579834
-0.0271606
-0.0784302
-0.0323486
-0.0424194
-0.0714111
-0.0744629
-0.0592041
-0.00335693
0.00823975
-0.0430298
-0.0839233
-0.0793457
-0.0973511
-0.107727
-0.0878906
-0.0592041
-0.0366211
-0.0201416
0.0137329
0.0424194
0.057373
0.071106
0.0790405
0.0424194
-0.00976562
-0.0579834
-0.0244141
0.017395
0.00213623
-0.0436401
-0.0482178
-0.0354004
-0.0634766
-0.0830078
-0.0878906
-0.0756836
-0.0564575
-0.0497437
-0.0488281
-0.0274658
-0.00793457
-0.00335693
-0.00244141
-0.00305176
0.00793457
0.000305176
0.00183105
0.00701904
0.00183105
-0.0180054
-0.0210571
-0.0100708
0.0106812
0.0350952
0.0256348
0.00854492
-0.00579834
-0.00488281
-0.0320435
-0.0491333
-0.0747681
-0.0735474
-0.0402832
0.00701904
0.0793457
0.144348
0.204773
0.210266
0.143127
0.0741577
0.0289917
0
-0.0231934
-0.0183105
0.0189209
-0.00457764
-0.0942993
-0.171814
-0.17334
-0.142822
-0.158386
-0.162354
-0.128784
-0.098877
-0.102234
-0.111694
-0.108032
-0.0631714
-0.0289917
-0.0167847
-0.0143433
-0.0305176
-0.0534058
-0.0637817
-0.071106
-0.0354004
-0.0286865
-0.0183105
-0.00152588
0.000305176
-0.0271606
0.00671387
0.0354004
0.0579834
0.0646973
0.0747681
0.0460815
-0.0430298
-0.100708
-0.0762939
-0.0320435
0.027771
0.0448608
0.0485229
0.0357056
0.0244141
0.0238037
-0.027771
-0.0686646
-0.062561
-0.0601196
-0.0457764
-0.0405884
-0.0256348
0.0219727
0.0524902
0.039978
0.0518799
0.0631714
0.0457764
0.000915527
-0.0274658
-0.0128174
-0.00366211
0.010376
0.0143433
0.0253296
0.0296021
0.0302124
0.0198364
0.0106812
0.00579834
0.0473022
0.0759888
0.09552
0.107117
0.083313
0.0537109
0.000305176
-0.0491333
-0.038147
-0.0112915
0.0445557
0.0915527
0.110474
0.117493
0.131531
0.126648
0.0695801
0.0289917
0.0515747
0.0421143
0.022583
-0.0210571
-0.0250244
-0.0442505
-0.0280762
0.00701904
0.0189209
0.00579834
-0.017395
-0.0119019
-0.0418091
-0.0631714
-0.0473022
-0.0234985
0.0192261
0.0759888
0.0927734
0.0836182
0.0952148
0.111694
0.0509644
0.0296021
0.0714111
0.109863
0.128784
0.152588
0.137634
0.0460815
-0.0808716
-0.123596
-0.109863
-0.0778198
-0.0393677
-0.0189209
-0.00335693
0.00854492
0.00762939
0.0161743
0.0146484
0.0115967
0.03479
0.0717163
0.0921631
0.0949097
0.0860596
0.0320435
0.0418091
0.057373
0.0964355
0.130615
0.176086
0.198364
0.174255
0.102539
0.0473022
-0.0238037
-0.0579834
-0.0869751
-0.0653076
-0.045166
-0.0308228
-0.0305176
-0.00762939
0.00518799
0.0253296
0.0534058
0.0460815
0.0326538
-0.00305176
-0.0259399
-0.0137329
0.0289917
0.0762939
0.106201
0.115662
0.126343
0.133972
0.0772095
0.0100708
-0.0430298
-0.0338745
-0.0344849
-0.0186157
0.00732422
0.00549316
0.00152588
-0.0143433
-0.0106812
-0.00366211
0.0152588
0.0500488
0.0558472
0.0537109
0.0680542
0.0848389
0.0561523
0.0210571
0.0265503
0.0378418
0.0491333
0.0643921
0.0695801
0.0622559
0.0326538
0.0317383
0.0427246
0.0592041
0.0723267
0.0814819
0.104675
0.132446
0.11322
0.0692749
0.0369263
0.0286865
-0.00457764
-0.0588989
-0.0643921
-0.0585938
-0.0296021
0.0158691
0.0564575
0.0717163
0.0448608
0.0134277
-0.0222778
-0.0363159
-0.0268555
-0.0198364
0.0106812
0.0222778
0.0195312
0.00640869
0.0012207
0.00213623
0.0241089
0.0308228
0.010376
0.0653076
0.115967
0.14679
0.154724
0.140686
0.12085
0.0106812
-0.0827026
-0.0869751
-0.0540161
-0.0296021
-0.0549316
-0.083313
-0.0592041
-0.039978
-0.0466919
-0.0183105
0.0140381
0.0244141
0.0338745
0.0332642
0.0305176
0.0234985
-0.0448608
-0.0897217
-0.0747681
-0.0390625
-0.0177002
0.00305176
0.0177002
0.0384521
0.0839233
0.100403
0.0891113
0.0839233
0.055542
0.000305176
-0.0363159
-0.0112915
0.00946045
-0.00793457
-0.0411987
-0.0372314
-0.0112915
0.0234985
-0.00305176
-0.0198364
-0.0216675
0
0.0137329
0.00793457
0.00946045
0.0210571
0.00396729
0.0387573
0.0576782
0.0515747
-0.012207
-0.043335
-0.00793457
0.0527954
0.0924683
0.110168
0.0720215
0.0747681
0.0646973
0.0375366
0.0100708
-0.0100708
0.0247192
-0.00549316
-0.14801
-0.20874
-0.177307
-0.140076
-0.0836182
-0.0250244
-0.00946045
-0.00366211
0.0100708
0.0231934
0.0238037
-0.0222778
-0.071106
-0.0689697
-0.0534058
-0.0256348
-0.0253296
-0.0326538
-0.0213623
0.0192261
0.0582886
0.0674438
0.0839233
0.109253
0.107727
0.057373
-0.0137329
-0.0274658
-0.0360107
-0.0384521
-0.0134277
-0.00396729
0.0149536
0.0262451
-0.00732422
-0.0311279
-0.0479126
-0.0567627
-0.0723267
-0.057373
-0.0268555
-0.0134277
-0.00183105
0.0192261
0.017395
0.0201416
0.0189209
0.0259399
0.03479
0.0320435
0.0393677
0.0756836
0.0796509
0.0900269
0.115662
0.159912
0.17334
0.155029
0.0964355
0.032959
0
-0.0335693
-0.0756836
-0.12207
-0.105286
-0.065918
-0.0509644
-0.0570679
-0.0521851
-0.067749
-0.135803
-0.161133
-0.122681
-0.0918579
-0.0570679
-0.0320435
-0.0357056
-0.0332642
-0.0314331
-0.0332642
-0.0201416
-0.00793457
0.0192261
0.0457764
0.107727
0.127258
0.118103
0.0842285
0.0195312
-0.0421143
-0.10437
-0.0964355
-0.0643921
-0.0396729
-0.0479126
-0.015564
0.0189209
0.00823975
0.0183105
0.0323486
0.0167847
0.00701904
0.0219727
0.0393677
0.0854492
0.122375
0.135193
0.127258
0.0775146
-0.0326538
-0.102234
-0.0866699
-0.0695801
-0.065918
-0.0839233
-0.0564575
-0.0131226
0.0125122
0.0253296
0.0140381
0.00701904
-0.00976562
-0.00671387
0.0390625
0.0558472
0.0811768
0.154114
0.2771
0.336304
0.278931
0.234375
0.197754
0.0595093
-0.13855
-0.273743
-0.240173
-0.155334
-0.117493
-0.108948
-0.111694
-0.0985718
-0.102844
-0.102539
-0.072937
-0.0183105
0.0088501
0.0241089
0.0213623
0.0216675
-0.00457764
0.00457764
0.00610352
0.0466919
0.111084
0.151978
0.169983
0.17334
0.108948
0
-0.11322
-0.13855
-0.110779
-0.0845337
-0.0564575
-0.0460815
-0.0299072
-0.00793457
0.0271606
0.0604248
0.0527954
0.0588989
0.0820923
0.0942993
0.0796509
0.055542
0.03479
0.020752
-0.00274658
-0.0393677
-0.0268555
-0.00396729
0.0140381
0.0369263
0.0738525
0.114746
0.129089
0.128784
0.111694
0.0134277
-0.0384521
-0.022583
0.00488281
0.00762939
-0.0515747
-0.071106
-0.0491333
-0.0411987
-0.0332642
-0.020752
0.0137329
0.0570679
0.0982666
0.114441
0.0930786
0.0796509
0.0180054
-0.0213623
-0.0448608
-0.0494385
-0.0524902
-0.0518799
-0.0473022
-0.0189209
0.0177002
0.0509644
0.0457764
0.00946045
-0.0012207
-0.0100708
-0.0167847
-0.0250244
-0.0344849
0.00366211
0.0460815
0.0802612
0.0793457
0.0741577
0.0421143
-0.00152588
-0.0463867
-0.0674438
-0.050354
-0.0137329
0.0262451
0.0796509
0.152893
0.202942
0.190125
0.145569
0.0604248
0.0283813
0.000305176
-0.0198364
-0.0418091
-0.0631714
-0.0967407
-0.144653
-0.158386
-0.104065
-0.0515747
-0.0125122
0.0363159
0.0604248
0.0918579
0.133667
0.126648
0.104065
0.0686646
0.00579834
-0.0585938
-0.0814819
-0.0628662
-0.0765991
-0.0848389
-0.0598145
-0.0250244
0.0360107
0.0997925
0.138855
0.143738
0.159912
0.100403
-0.0253296
-0.111389
-0.133667
-0.137634
-0.0897217
-0.0430298
-0.0289917
0.000915527
0.00946045
0.0418091
0.072937
0.050354
0.0204468
0.00946045
0.0393677
0.0582886
0.0656128
0.0704956
0.0866699
0.0717163
0.0311279
-0.010376
-0.00946045
-0.0274658
-0.0482178
-0.045166
-0.0643921
-0.0759888
-0.0814819
-0.0720215
0.0134277
0.0796509
0.10437
0.0827026
0.0531006
0.00823975
-0.0534058
-0.0796509
-0.062561
-0.0268555
-0.00579834
0.0164795
0.0375366
0.0524902
0.0393677
0.0582886
0.0790405
0.0949097
0.135498
0.124817
0.0973511
0.101624
0.104675
0.0744629
0.0604248
0.0650024
0.111389
0.0653076
-0.0393677
-0.0967407
-0.133057
-0.168762
-0.138245
-0.0927734
-0.0601196
-0.0360107
-0.0372314
-0.0796509
-0.0793457
-0.0646973
-0.045166
-0.0241089
0.00610352
0.0466919
0.0869751
0.10437
0.0933838
0.0643921
0.027771
0.022583
0
-0.0341797
-0.0482178
-0.0393677
-0.0134277
-0.0146484
-0.0149536
-0.0158691
-0.00640869
0.0296021
0.0265503
0.0354004
0.0378418
0.017395
0.0210571
-0.00823975
-0.0195312
-0.0234985
0.00213623
0.0262451
0.043335
0.0457764
0.0619507
0.0817871
0.0668335
0.0839233
0.105286
0.139771
0.159302
0.108337
0.0140381
-0.0695801
-0.158691
-0.166321
-0.129089
-0.0906372
-0.0454712
0.027771
0.0924683
0.115967
0.120544
0.106506
0.0576782
-0.00335693
-0.0286865
-0.0604248
-0.0402832
-0.017395
-0.00946045
0.00701904
0
0.0152588
0.0668335
0.11322
0.149536
0.164185
0.148315
0.118713
0.0726318
-0.00854492
-0.104065
-0.102539
-0.0640869
-0.0515747
-0.0143433
0.0448608
0.078125
0.123596
0.122681
0.0915527
0.0289917
-0.0552368
-0.0665283
-0.0418091
-0.0170898
-0.0219727
-0.0357056
-0.0366211
-0.03479
-0.0241089
0.0390625
0.0994873
0.116882
0.106506
0.0582886
0.0161743
-0.0518799
-0.130005
-0.106506
-0.0427246
0.00366211
0.0283813
0.0344849
0.0418091
0.0439453
0.0308228
0.00518799
-0.0286865
-0.0274658
-0.0292969
-0.0338745
-0.027771
-0.00549316
-0.00213623
0.0204468
0.0372314
0.0717163
0.101929
0.103149
0.113831
0.140076
0.150146
0.0839233
0.0799561
0.0973511
0.103455
0.020752
-0.0180054
-0.0546265
-0.0854492
-0.0692749
-0.119934
-0.131836
-0.129089
-0.105896
-0.108948
-0.0924683
-0.0714111
-0.0601196
-0.043335
-0.0247192
-0.0177002
-0.012207
-0.00335693
0.0332642
0.0387573
0.0231934
0.00610352
-0.0012207
0.00183105
-0.0286865
-0.0653076
-0.00457764
0.0723267
0.122681
0.139465
0.155334
0.146179
0.0653076
-0.0158691
-0.0436401
-0.0476074
-0.0643921
-0.135803
-0.100403
-0.0753784
-0.0402832
-0.0350952
-0.050354
-0.100708
-0.10376
-0.0881958
-0.0561523
-0.0454712
-0.0125122
-0.0143433
-0.0112915
-0.00701904
0.0125122
0.0408936
0.0653076
0.0924683
0.126648
0.131531
0.072937
0.00579834
-0.00610352
-0.045166
-0.119019
-0.152283
-0.0836182
-0.09552
-0.0680542
-0.0473022
-0.0372314
-0.0283813
-0.0357056
-0.0283813
-0.0198364
-0.0302124
-0.020752
0.00579834
0.0772095
0.153198
0.191956
0.201111
0.213623
0.163269
0.0375366
-0.072937
-0.116272
-0.0631714
-0.0296021
-0.050354
-0.0354004
-0.0152588
-0.0219727
-0.0686646
-0.111084
-0.107727
-0.0436401
0.00823975
0.0244141
0.0231934
-0.0125122
-0.0469971
-0.0418091
-0.0604248
-0.0875854
-0.09552
-0.0756836
-0.072937
-0.0668335
-0.0567627
-0.0375366
-0.0280762
-0.00732422
0.0204468
0.0289917
0.015564
-0.0161743
-0.0238037
-0.0271606
-0.0408936
-0.0375366
-0.0375366
-0.0213623
-0.0192261
-0.0296021
-0.0335693
-0.0186157
-0.0469971
-0.0570679
-0.0186157
0.0259399
0.0274658
0.0479126
0.0497437
0.0628662
0.0665283
0.017395
0.00396729
0.03479
0.0302124
-0.0213623
-0.101318
-0.0735474
-0.0418091
-0.00793457
0.00671387
0.0350952
0.0582886
0.0601196
0.0567627
0.0650024
0.0732422
0.0494385
0.0189209
0.0296021
0.00335693
-0.0674438
-0.0778198
-0.0634766
-0.0299072
-0.00518799
0.0228882
0.0485229
0.0674438
0.0390625
-0.00640869
-0.00946045
-0.0283813
-0.072937
-0.0793457
-0.0439453
-0.0167847
-0.0436401
-0.055542
-0.0561523
-0.032959
-0.0241089
-0.0265503
-0.0439453
-0.0271606
0.0119019
-0.00396729
-0.0308228
-0.0195312
-0.00732422
-0.0158691
-0.015564
-0.00579834
-0.0112915
0.00244141
0.00671387
-0.0189209
-0.0265503
-0.0427246
-0.0228882
-0.0100708
-0.012207
-0.0296021
-0.00915527
0.00976562
0.0100708
0.0128174
0.055542
0.062561
0.0650024
0
-0.0552368
-0.0396729
-0.0234985
0.00610352
0.0512695
0.0762939
0.0808716
0.0701904
0.0619507
0.0595093
0.0134277
-0.0180054
-0.0137329
-0.0289917
0.0100708
0.0588989
0.0582886
0.0469971
0.0259399
0.00946045
-0.0222778
-0.0390625
-0.0283813
0.0283813
0.0848389
0.132141
0.180969
0.178833
0.11322
0.0662231
0.0350952
0.0805664
0.145874
0.195923
0.284424
0.292969
0.23468
0.0296021
-0.190735
-0.281982
-0.274963
-0.231934
-0.1828
-0.160828
-0.145264
-0.111389
-0.0531006
-0.0216675
-0.0360107
-0.0366211
-0.0253296
-0.0143433
0.00427246
0.0216675
0.00549316
0.00549316
0.00183105
0.0167847
0.0332642
0.0253296
0.0384521
0.0814819
0.090332
0.0134277
-0.0744629
-0.0726318
-0.0387573
-0.0463867
-0.0524902
-0.0320435
-0.0222778
-0.0146484
-0.00640869
0.00732422
0.00701904
0.0109863
0.0390625
0.0646973
0.0656128
0.0692749
0.0299072
0.0100708
-0.00518799
-0.0296021
-0.0448608
-0.0405884
-0.0186157
0.00183105
-0.00335693
0.0143433
0.0311279
0.0234985
0.0445557
0.0384521
0.0354004
0.0344849
0.0500488
0.0772095
0.0827026
0.0738525
0.0622559
0.0759888
0.0543213
0
-0.0344849
-0.0170898
-0.00457764
-0.0317383
-0.0192261
-0.0183105
-0.0674438
-0.101624
-0.107727
-0.0814819
0.0119019
0.0634766
0.150146
0.266113
0.259705
0.224915
0.149841
0.0506592
-0.0311279
-0.117493
-0.185852
-0.170898
-0.11322
-0.0717163
-0.0488281
-0.0723267
-0.0839233
-0.0534058
-0.0466919
-0.0418091
-0.0524902
-0.0592041
-0.0512695
-0.0570679
-0.0680542
-0.0671387
-0.0534058
-0.0488281
-0.0656128
-0.0634766
-0.0595093
-0.0378418
-0.0314331
-0.0262451
0.0125122
0.0424194
0.0411987
0.0411987
0.0140381
0.0183105
0.0115967
0.00671387
0.00610352
0.00610352
0.0189209
0.0143433
-0.00335693
-0.00915527
-0.015564
-0.0146484
-0.022583
-0.0317383
-0.022583
-0.0100708
-0.00518799
0.000610352
0.0140381
0.0140381
0.0125122
0.0250244
0.0686646
0.114136
0.1297
0.123901
0.14679
0.148621
0.0875854
0.0177002
-0.017395
-0.0662231
-0.093689
-0.115051
-0.146179
-0.140686
-0.0894165
-0.0274658
0.00152588
-0.00244141
-0.0265503
-0.0106812
0.0186157
0.0189209
0.032959
0.0457764
0.0708008
0.088501
0.0588989
0.0601196
0.0643921
0.0265503
0.00427246
0.00335693
-0.0216675
-0.0549316
-0.0668335
-0.0411987
-0.0177002
0.000915527
-0.0238037
-0.0637817
-0.0524902
-0.0222778
-0.0100708
-0.0564575
-0.0924683
-0.0656128
-0.0408936
0.00640869
0.06073
0.0769043
0.0888062
0.0570679
-0.00640869
-0.0250244
-0.0271606
-0.0222778
-0.0335693
-0.0497437
-0.0189209
0.0256348
0.0427246
0.0256348
0.0247192
0.0183105
-0.00579834
-0.0296021
-0.0244141
0.032959
0.0704956
0.0973511
0.0863647
0.104675
0.0723267
0.00946045
0.0088501
0.020752
0.0189209
-0.0363159
-0.0637817
-0.0408936
-0.0131226
-0.0149536
-0.038147
-0.0509644
-0.0189209
-0.0088501
-0.0109863
-0.0308228
-0.0424194
-0.0289917
-0.0140381
-0.027771
-0.0183105
0.00854492
0.0558472
0.0875854
0.0952148
0.0808716
0.06073
0.0363159
-0.0158691
-0.0378418
-0.0372314
-0.0357056
-0.0219727
-0.0299072
-0.0424194
-0.0296021
-0.0415039
-0.0201416
-0.0167847
-0.0244141
0.0012207
0.0723267
0.149536
0.172729
0.192566
0.185242
0.146484
0.0354004
-0.103149
-0.158997
-0.166321
-0.1297
-0.098877
-0.0796509
-0.0500488
-0.00488281
0.0183105
0.0668335
0.102539
0.09552
0.0866699
0.0476074
0.0582886
0.0640869
0.0161743
0.0238037
0.038147
0.0201416
0.0228882
0.0524902
0.0701904
0.0814819
0.101929
0.0637817
0.0106812
-0.0982666
-0.14679
-0.0939941
-0.038147
-0.0198364
-0.0146484
-0.0195312
-0.0296021
-0.0927734
-0.140076
-0.119019
-0.0512695
0.0164795
0.0283813
0.038147
0.03479
0.0387573
0.0268555
-0.00152588
-0.0164795
0.0012207
0.0231934
0.0360107
0.0778198
0.0802612
0.0445557
0.012207
-0.0549316
-0.0744629
-0.0616455
-0.020752
0.0134277
0.0415039
0.0183105
-0.00823975
-0.0231934
-0.010376
0.015564
0.0457764
0.0808716
0.0814819
0.0753784
0.0790405
0.0457764
0.0308228
0.00518799
-0.0112915
-0.0201416
-0.0561523
-0.0494385
-0.0140381
-0.00305176
-0.0149536
-0.0292969
-0.0244141
0.000610352
0.0366211
0.0527954
0.0875854
0.125427
0.164795
0.220337
0.213318
0.177307
0.125427
-0.0100708
-0.0973511
-0.130005
-0.134888
-0.0857544
0.000915527
0.045166
0.0164795
-0.050354
-0.0881958
-0.0866699
-0.105286
-0.123291
-0.132446
-0.110779
-0.0906372
-0.083313
-0.0619507
-0.0396729
-0.0387573
-0.0323486
-0.00518799
-0.0088501
-0.0143433
0.0112915
0.055542
0.0857544
0.0970459
0.106506
0.0952148
0.0701904
0.00946045
-0.0427246
-0.0424194
-0.0393677
-0.0512695
-0.0402832
-0.0509644
-0.0704956
-0.0784302
-0.0610352
-0.0524902
-0.0317383
-0.0387573
-0.0234985
0.00183105
0.015564
0.0457764
0.0231934
0.0540161
0.0360107
0.00793457
-0.0106812
0.00213623
0.0289917
0.0482178
0.0650024
0.0619507
0.0790405
0.06073
0.0344849
0.0234985
0.0231934
-0.0180054
-0.0558472
-0.0534058
-0.022583
0.022583
0.055542
0.0933838
0.114136
0.0802612
0.0305176
-0.0125122
-0.0454712
-0.0897217
-0.134888
-0.106506
-0.09552
-0.0613403
-0.0219727
0.0119019
0.0668335
0.111084
0.140076
0.196533
0.229187
0.221252
0.0921631
0.0100708
-0.083313
-0.185852
-0.192871
-0.206909
-0.152283
-0.0982666
-0.072937
-0.0643921
-0.0765991
-0.09552
-0.105286
-0.0653076
-0.00366211
0.0112915
0.0167847
0.0317383
0.0424194
0.0259399
-0.0128174
-0.0296021
-0.0134277
-0.0231934
-0.0335693
-0.0274658
-0.0372314
-0.0430298
-0.050354
-0.0476074
-0.0540161
-0.0341797
0.00244141
0.00946045
0.0238037
0.0302124
0.00701904
0.0106812
0.0213623
0.0289917
0.057373
0.0973511
0.108948
0.0970459
0.0820923
0.0631714
0.0183105
-0.0338745
-0.0512695
-0.0262451
0.0189209
0.03479
0.0888062
0.098877
0.104065
0.071106
0.0012207
0.00610352
0.00244141
-0.0177002
-0.0259399
-0.0308228
-0.00640869
0.015564
0.0289917
0.0469971
0.0726318
0.0509644
0.00213623
0.00549316
0.0222778
0.0515747
0.0900269
0.10498
0.0994873
0.0546265
0.00732422
-0.00213623
-0.0323486
-0.0881958
-0.147095
-0.127258
-0.0646973
0.0106812
0.0521851
0.0460815
0.0430298
0.00488281
-0.0546265
-0.0613403
-0.0735474
-0.0662231
-0.0161743
0.022583
0.0686646
0.0933838
0.112305
0.0881958
0.0646973
0.0469971
-0.00213623
-0.032959
-0.0314331
-0.0247192
-0.0497437
-0.062561
-0.0457764
-0.0378418
-0.0152588
-0.00823975
0.00183105
0.0137329
0.00823975
0.00823975
0.0170898
0.00976562
0.0418091
0.0918579
0.126648
0.140381
0.123596
0.118713
0.0985718
0.0192261
-0.0411987
-0.0588989
-0.0311279
0.0170898
0.067749
0.0595093
0.0790405
0.138245
0.109253
0.0564575
0.039978
0.0393677
0.00152588
-0.0457764
-0.0491333
-0.00854492
0.0473022
0.0802612
0.083313
0.0402832
-0.0247192
-0.0601196
-0.108948
-0.139465
-0.0836182
-0.0518799
-0.0405884
-0.0338745
-0.0216675
0.00335693
0.0164795
0
0.0387573
0.0668335
0.0814819
0.113831
0.126648
0.126343
0.122986
0.111389
0.0878906
0.00671387
-0.0674438
-0.0811768
-0.045166
-0.0384521
-0.0631714
-0.0854492
-0.0894165
-0.0830078
-0.0689697
-0.072937
-0.0598145
-0.0372314
-0.0234985
-0.0222778
-0.00366211
0.00335693
0.0241089
0.0473022
0.0814819
0.0891113
0.0970459
0.0888062
0.0598145
0.010376
0.0109863
0.0726318
0.115967
0.163269
0.16449
0.165405
0.129395
0.0256348
-0.0140381
-0.0640869
-0.130615
-0.1297
-0.0982666
-0.0811768
-0.0680542
-0.0311279
0.00152588
0.0338745
0.0280762
-0.0201416
-0.0192261
-0.0161743
0.00915527
0.0473022
0.0759888
0.0857544
0.0881958
0.0973511
0.0909424
0.085144
0.0897217
0.125732
0.169067
0.166931
0.12085
0.000915527
-0.0924683
-0.128479
-0.14679
-0.127258
-0.0912476
-0.0708008
-0.0546265
-0.0509644
-0.0418091
-0.0253296
-0.0296021
-0.0546265
-0.0521851
-0.00762939
0.0463867
0.109558
0.140076
0.138855
0.123596
0.0744629
0.0125122
-0.0180054
-0.0482178
-0.0582886
-0.0631714
-0.093689
-0.0857544
-0.0546265
-0.0247192
0
0.015564
0.00549316
0.0271606
0.0622559
0.116272
0.169373
0.17395
0.147705
0.0717163
-0.0268555
-0.090332
-0.101624
-0.0872803
-0.119934
-0.0967407
-0.0466919
-0.00488281
0.017395
0.010376
0.022583
0.0418091
0.065918
0.100708
0.116577
0.0891113
0.0753784
-0.0405884
-0.134583
-0.129089
-0.098877
-0.0637817
-0.0341797
-0.0204468
-0.0137329
-0.0424194
-0.0723267
-0.0549316
-0.0350952
-0.0228882
-0.0131226
0.00305176
0.0183105
0.0436401
0.0354004
0.0244141
0.0283813
0.0231934
0.00671387
0.0119019
0.039978
0.0360107
0.0302124
0.09552
0.114746
0.0689697
0.00640869
0.0216675
0.0357056
0.00640869
-0.0454712
-0.0396729
-0.0488281
-0.0698853
-0.083313
-0.0686646
-0.0369263
0.000305176
-0.00610352
-0.0280762
-0.0436401
-0.0469971
-0.0405884
-0.0283813
0.0140381
0.0509644
0.0665283
0.0332642
0.0012207
0.0350952
0.0704956
0.0546265
0.0323486
0.0692749
0.0814819
0.0378418
-0.0292969
-0.0326538
-0.0271606
-0.0537109
-0.0717163
-0.0656128
-0.0595093
-0.0549316
-0.0131226
0.0241089
0.0234985
0.0180054
0.039978
0.0595093
0.0558472
0.0088501
-0.0164795
0.0320435
0.0656128
0.0897217
0.105896
0.0918579
0.0723267
0.00823975
-0.0384521
-0.0363159
-0.00701904
-0.0271606
-0.0442505
-0.0244141
-0.00427246
-0.0222778
-0.0506592
-0.0375366
0.00457764
0.0149536
0.0204468
0.0619507
0.0790405
0.142212
0.177612
0.146179
0.0439453
-0.0427246
-0.0701904
-0.125427
-0.152893
-0.106201
-0.0476074
-0.0286865
-0.00213623
0
-0.0192261
-0.017395
-0.0231934
-0.0323486
-0.0506592
-0.0616455
-0.0369263
-0.0323486
-0.0466919
-0.0338745
0.00946045
0.0131226
0.0134277
0.027771
0.072937
0.101013
0.114441
0.0805664
0.0424194
0.0253296
-0.0576782
-0.0653076
-0.0378418
-0.017395
-0.0259399
-0.0628662
-0.0817871
-0.0842285
-0.0564575
-0.0415039
-0.038147
-0.0158691
-0.0088501
0.0689697
0.163879
0.201721
0.194397
0.172119
0.109253
0.0231934
-0.0857544
-0.039978
0.0302124
0.0332642
0.0527954
0.0735474
0.0558472
0.0485229
0.0430298
0.0115967
0
-0.055542
-0.127869
-0.159607
-0.135193
-0.114441
-0.0854492
-0.0802612
-0.0650024
-0.0259399
0.0234985
0.0592041
0.0518799
0.0512695
0.0296021
0.0247192
-0.00701904
-0.0491333
-0.0341797
0.0256348
0.0534058
0.0595093
0.0387573
0.038147
0.0296021
0.00671387
-0.0149536
-0.0216675
0.0228882
0.0231934
0.0296021
0.0271606
0.0405884
0.0482178
0.0695801
0.0787354
0.0491333
0.00457764
-0.0210571
0.015564
0.0149536
-0.0259399
-0.0442505
-0.0271606
-0.0296021
-0.03479
-0.00701904
0.0469971
0.0924683
0.125732
0.137939
0.102539
0.0765991
0.0646973
0.0860596
0.115662
0.139771
0.143738
0.140991
0.110779
0.0601196
0.0256348
0.0161743
-0.0161743
-0.093689
-0.147095
-0.108948
-0.0546265
0.00213623
0.0613403
0.09552
0.111084
0.0506592
0.00946045
0.0253296
0.0360107
0.017395
0.0259399
0.0344849
0.0164795
-0.0262451
-0.0875854
-0.0576782
-0.00549316
0.0152588
0.0125122
0.0177002
0.00488281
-0.00640869
0.0521851
0.110474
0.131836
0.127869
0.101929
0.0387573
-0.0396729
-0.107422
-0.0958252
-0.0482178
-0.0183105
-0.0146484
-0.00274658
0.0231934
0.0765991
0.0906372
0.0820923
0.0692749
0.0784302
0.0466919
0.000915527
-0.0259399
-0.0405884
-0.0369263
-0.0650024
-0.0653076
-0.0491333
-0.0402832
-0.0387573
-0.00366211
0.00701904
0.0140381
0.0369263
0.0411987
0.0549316
0.0765991
0.107422
0.0656128
0.0546265
0.0549316
0.0344849
0.0106812
0.0143433
0.0479126
0.107117
0.159607
0.210266
0.240784
0.223694
0.14679
-0.0161743
-0.117493
-0.13031
-0.155334
-0.158386
-0.137024
-0.107727
-0.0436401
0.0119019
0.032959
0.038147
0.0341797
0.0216675
0.00518799
-0.0585938
-0.142212
-0.0839233
0.00793457
0.112915
0.169067
0.160522
0.142212
0.0994873
0.0183105
-0.0875854
-0.213928
-0.173645
-0.122986
-0.110168
-0.107117
-0.0946045
-0.0598145
-0.0292969
-0.0314331
-0.0234985
-0.00579834
-0.0457764
-0.0473022
-0.0463867
-0.0186157
-0.0363159
-0.0570679
-0.0189209
0.039978
0.0579834
0.0466919
0.00793457
-0.0186157
-0.0408936
-0.0689697
-0.0524902
-0.0405884
-0.0149536
-0.00152588
-0.0256348
-0.0405884
-0.0234985
0.020752
0.0369263
0.0561523
0.0579834
0.0115967
-0.0595093
-0.0741577
-0.06073
-0.0183105
0.00854492
0.0210571
0.027771
0.0305176
0.0485229
0.00915527
-0.0363159
-0.0131226
0.0308228
0.0265503
-0.0198364
-0.0704956
-0.0933838
-0.0759888
-0.062561
-0.0280762
0.0280762
0.0680542
0.0796509
0.0778198
0.118103
0.160828
0.130615
0.12085
0.122375
0.0912476
-0.015564
-0.158691
-0.189514
-0.162964
-0.161133
-0.133972
-0.0961304
-0.0238037
0.00213623
0.0186157
-0.0234985
-0.0143433
-0.0241089
-0.0668335
-0.0701904
-0.0680542
-0.0686646
-0.0640869
-0.0393677
-0.0244141
-0.0354004
-0.0512695
-0.0442505
-0.0253296
0.012207
0.0308228
0.050354
0.0961304
0.118408
0.103455
0.0622559
0
-0.0271606
-0.0567627
-0.0924683
-0.0823975
-0.0390625
-0.0149536
0.0262451
0.0357056
0.0219727
0.027771
0.0314331
0.00762939
0.00793457
0
-0.0186157
-0.0674438
-0.0933838
-0.0756836
-0.0308228
-0.00701904
0.0137329
0.0241089
0.0222778
0.0213623
-0.00762939
-0.017395
-0.00579834
0.00152588
0.072937
0.132446
0.188904
0.207214
0.190735
0.106506
-0.0552368
-0.196228
-0.202637
-0.098877
-0.00640869
0.0485229
0.0701904
0.072937
0.0775146
0.0476074
-0.0241089
-0.0140381
0.00488281
0.00152588
-0.0378418
-0.0769043
-0.0909424
-0.0772095
-0.0982666
-0.0674438
-0.0717163
-0.0378418
0
0.0485229
0.0665283
0.0698853
0.0680542
0.0558472
0.0274658
-0.0204468
-0.00854492
0.0332642
0.0234985
0.0164795
0.0204468
0.000915527
-0.071106
-0.117188
-0.105286
-0.0686646
-0.0152588
0.045166
0.0689697
0.0790405
0.093689
0.0848389
0.0448608
-0.0247192
-0.0332642
-0.0396729
-0.0662231
-0.071106
-0.0131226
0.015564
0.0186157
0.0186157
0.0231934
0.00946045
0.0125122
0.0576782
0.0827026
0.0878906
0.0991821
0.143127
0.148315
0.1297
0.134583
0.143433
0.136108
0.0643921
0.0308228
0.0354004
0.0149536
0
-0.0491333
-0.0582886
-0.0518799
-0.0146484
-0.0390625
-0.104675
-0.110168
-0.0784302
-0.0393677
-0.0247192
-0.00854492
0.00457764
0.0436401
0.06073
0.055542
0.0396729
0.0354004
0.0250244
-0.0231934
-0.0521851
-0.0378418
-0.0183105
0.0341797
0.0961304
0.144043
0.176392
0.171814
0.137329
0.0335693
-0.0656128
-0.127258
-0.124512
-0.116882
-0.105286
-0.0643921
-0.0396729
-0.00854492
-0.0189209
-0.00457764
0.0323486
0.0927734
0.117493
0.09552
0.0927734
0.0900269
0.0546265
-0.022583
-0.0479126
-0.0292969
0.0363159
0.109863
0.155945
0.209961
0.223999
0.159912
0.0576782
-0.0634766
-0.121155
-0.0982666
-0.0454712
0.0125122
0.0769043
0.100098
0.0500488
-0.0872803
-0.157166
-0.114441
-0.0302124
0.0100708
0.0106812
0.0253296
0.0436401
0.00976562
-0.0354004
-0.0283813
0.0167847
0.0753784
0.0796509
0.0799561
0.0436401
0.0152588
-0.0424194
-0.0445557
-0.0115967
-0.00427246
-0.0100708
-0.0378418
-0.00213623
0.0415039
0.0524902
0.0521851
0.0497437
0.0357056
-0.0222778
-0.0732422
-0.0845337
-0.09552
-0.105591
-0.088501
-0.0582886
-0.0402832
-0.0369263
-0.0369263
-0.0106812
0.00640869
0.0262451
0.0396729
0.0558472
0.0549316
0.0442505
0.0253296
0.00274658
0.0378418
0.062561
0.0982666
0.111694
0.116882
0.142212
0.126648
0.0509644
-0.0268555
-0.0946045
-0.169373
-0.18219
-0.14679
-0.0909424
-0.0305176
0.0231934
0.0772095
0.121765
0.117188
0.0640869
-0.0289917
-0.106201
-0.158997
-0.178528
-0.152283
-0.122986
-0.0793457
-0.0418091
-0.015564
-0.0210571
-0.0341797
-0.0332642
-0.0201416
-0.00671387
0.0247192
0.0424194
0.0186157
0.00457764
-0.0128174
0.0149536
0.0256348
0.0488281
0.0894165
0.101318
0.103455
0.0949097
0.0268555
-0.0518799
-0.0558472
-0.0485229
-0.0430298
0.00640869
0.0561523
0.0939941
0.0756836
0.0604248
0.0558472
-0.0238037
-0.0656128
-0.0888062
-0.045166
-0.00946045
-0.0308228
-0.102844
-0.120239
-0.0784302
0
0.0912476
0.168762
0.187988
0.146179
0.135803
0.123901
0.0390625
-0.0402832
-0.0308228
-0.0213623
-0.124207
-0.224915
-0.202332
-0.138855
-0.106812
-0.0869751
-0.0549316
-0.0421143
-0.0311279
-0.0283813
-0.0253296
0
0.00915527
0.0088501
0.00579834
-0.0128174
-0.00549316
0.0265503
0.0338745
0.0308228
0.0646973
0.03479
0.027771
0.039978
0.0247192
0.0271606
0.0289917
0.0314331
0.0534058
0.0442505
0.0241089
0.00366211
0.00549316
0.0250244
0.032959
0.0646973
0.0769043
0.0680542
0.0805664
0.128784
0.222778
0.270386
0.247803
0.187988
0.13031
0.00701904
-0.136108
-0.153809
-0.090332
-0.0839233
-0.10376
-0.0878906
-0.039978
-0.0183105
-0.0164795
0
0.0149536
0.0234985
0.0161743
-0.0238037
-0.0708008
-0.0558472
-0.0234985
-0.00396729
0.0177002
0.00427246
0.00732422
0.00640869
-0.00549316
0.00946045
0.0167847
0.0131226
0.0158691
0.0244141
0.0405884
0.078125
0.137634
0.24292
0.320129
0.345764
0.318604
0.253296
0.102234
-0.12207
-0.235291
-0.223999
-0.171204
-0.12085
-0.0942993
-0.111084
-0.143127
-0.12207
-0.0772095
-0.0595093
-0.0332642
-0.0186157
-0.0286865
-0.0283813
-0.0250244
-0.012207
-0.00549316
0.00610352
0.00946045
0.0210571
0.0302124
0.0314331
0.0344849
0.0415039
0.0296021
0.0283813
-0.00610352
-0.0445557
-0.0515747
-0.0363159
-0.012207
-0.00549316
-0.00854492
0.00183105
-0.00579834
0.0180054
0.0106812
0.00610352
-0.0125122
0
0.000305176
-0.00976562
0.00152588
0.00732422
-0.00549316
-0.00427246
-0.00946045
-0.00793457
0.00488281
0.0411987
0.0817871
0.0695801
0.0741577
0.107117
0.133667
0.161133
0.122681
0.167542
0.241394
0.256958
0.19043
0.067749
0.0012207
0
-0.0830078
-0.149231
-0.157776
-0.111694
-0.106812
-0.123596
-0.101318
-0.0772095
-0.0845337
-0.0317383
0.0366211
0.057373
0.00946045
-0.127869
-0.155334
-0.147095
-0.185852
-0.167236
-0.112
-0.0717163
-0.0491333
-0.0393677
-0.0350952
-0.0274658
-0.0390625
-0.0161743
0
0.00335693
0.0140381
0.0161743
0.00488281
-0.0152588
0.000305176
-0.027771
-0.0338745
-0.0189209
-0.022583
-0.00793457
0.00274658
0.0213623
0.0247192
0.0137329
-0.00823975
-0.00671387
0
-0.00274658
-0.00457764
0.00183105
-0.00915527
-0.00183105
0.00762939
0.0216675
0.0512695
0.117798
0.19928
0.25238
0.220947
0.178528
0.12207
0.0460815
-0.0302124
-0.0646973
-0.0314331
-0.0228882
0.022583
-0.00823975
-0.0646973
-0.119019
-0.148315
-0.119019
-0.10498
-0.0811768
-0.0860596
-0.0808716
-0.0604248
-0.0497437
-0.0231934
-0.017395
-0.00183105
0.0494385
0.0720215
0.0930786
0.158081
0.19043
0.180054
0.117493
0.0515747
0.0241089
-0.00762939
-0.0119019
0.00610352
0.0280762
0.039978
0.000610352
-0.0778198
-0.0756836
-0.0402832
0.00457764
0.0479126
0.0643921
0.107727
0.136414
0.162964
0.168152
0.161743
0.0848389
0.00396729
-0.083313
-0.163879
-0.138855
-0.0616455
-0.0378418
0.00305176
0.0497437
0.119934
0.184631
0.209961
0.194702
0.150757
0.0692749
-0.0344849
-0.0979614
-0.0759888
-0.0595093
-0.0643921
-0.0588989
-0.022583
-0.00396729
0.0271606
0.0524902
0.0717163
0.071106
0.043335
0.00549316
-0.00396729
0.000610352
0.00518799
0.0332642
0.0689697
0.0631714
0.0640869
0.0930786
0.114136
0.119934
0.127869
0.112915
0.0863647
0.0430298
-0.00915527
-0.0177002
0.0149536
0.038147
0.0424194
0.0778198
0.0875854
0.0650024
0.0460815
0.0250244
-0.00305176
-0.0326538
-0.0613403
-0.0314331
-0.00396729
0.00823975
0.020752
0.012207
0.0195312
0.0332642
0.0177002
0.027771
0.0241089
0.0378418
0.0253296
0.0326538
0.0360107
0.0338745
0.0292969
0.0296021
0.0280762
0.0115967
0.0149536
0.038147
0.0408936
0.0393677
0.0326538
0.0393677
0.0314331
0.0265503
0.0302124
0.0350952
0.0405884
0.0515747
0.0540161
0.0595093
0.0482178
0.032959
0.0234985
0.0106812
0.0213623
0.0314331
0.0335693
0.03479
0.00549316
0.00366211
0.0119019
0.022583
0.027771
0.0405884
0.0366211
0.0228882
0.0189209
0.0286865
0.039978
0.0430298
0.0204468
0.0289917
0.0201416
0.0128174
0.00213623
-0.00701904
-0.00305176
0.0106812
0.0268555
0.0363159
0.039978
0.0671387
0.10376
0.118408
0.117188
0.108643
0.109253
0.112
0.0894165
0.0332642
-0.0439453
-0.045166
-0.010376
0.00823975
0.0131226
0.0143433
0.0012207
-0.0219727
-0.065918
-0.100708
-0.11261
-0.112
-0.0997925
-0.0811768
-0.0622559
-0.0564575
-0.06073
-0.0543213
-0.050354
-0.0323486
-0.0228882
-0.039978
-0.03479
-0.0323486
-0.03479
-0.0250244
-0.0213623
-0.0119019
-0.00305176
0.00946045
0.00549316
0.00579834
0.000610352
-0.0128174
0.00579834
0.0231934
0.0305176
0.0286865
0.0289917
0.0222778
0.0106812
-0.0164795
-0.0662231
-0.0570679
-0.0424194
-0.022583
-0.0189209
-0.0143433
-0.0247192
-0.0189209
0.00335693
0.0201416
0.0204468
0.0189209
0.00396729
-0.0137329
-0.0216675
-0.00854492
-0.0100708
-0.00946045
-0.00610352
-0.0323486
-0.022583
0.00244141
-0.00335693
0.00793457
0.0216675
0.0143433
0.0222778
0.0265503
0.00671387
0.0198364
0.0259399
0.0115967
-0.00946045
-0.0250244
-0.0424194
-0.0469971
-0.0479126
-0.0460815
-0.0161743
-0.00518799
0.00915527
0.00915527
0.0137329
0.00579834
0.00915527
0
-0.00457764
-0.00793457
-0.0119019
-0.0234985
-0.0131226
-0.00793457
-0.00305176
0.000305176
-0.00854492
-0.0198364
-0.0198364
-0.0286865
-0.0210571
-0.0119019
-0.0109863
-0.0125122
-0.00946045
0.000610352
0.0115967
0.0189209
0.0579834
0.106201
0.125122
0.122681
0.107422
0.0527954
0.0198364
-0.0515747
-0.12207
-0.128784
-0.0991821
-0.0726318
-0.0622559
-0.0619507
-0.0564575
-0.0479126
-0.0561523
-0.0476074
-0.0460815
-0.0357056
-0.0424194
-0.0302124
-0.0238037
-0.0149536
-0.0106812
-0.0100708
-0.00946045
0.0183105
0.0448608
0.0820923
0.101624
0.0946045
0.0918579
0.072937
0.0323486
-0.0531006
-0.154114
-0.169373
-0.151062
-0.120239
-0.0869751
-0.0418091
0.0210571
0.0875854
0.125732
0.146484
0.159607
0.135803
0.0665283
-0.0372314
-0.0881958
-0.0967407
-0.0827026
-0.0646973
-0.0326538
-0.0164795
-0.0125122
-0.0595093
-0.106201
-0.124512
-0.116882
-0.106506
-0.106506
-0.104065
-0.065918
-0.0485229
-0.055542
-0.0650024
-0.071106
-0.0631714
-0.057373
-0.043335
-0.0219727
-0.00946045
-0.0222778
-0.0268555
0.000305176
0.00854492
0.00549316
-0.00823975
-0.0106812
-0.0137329
-0.0192261
-0.0213623
-0.0109863
-0.00183105
0.000305176
-0.00335693
-0.0109863
-0.0106812
0.00549316
0.0146484
0.0271606
0.0222778
-0.0128174
-0.0314331
-0.0387573
-0.0363159
-0.038147
-0.0289917
-0.022583
-0.022583
-0.00366211
0.0164795
0.0350952
0.0344849
0.0311279
0.0296021
0.0314331
0.0131226
-0.00946045
-0.0491333
-0.0521851
-0.0469971
-0.020752
0.0177002
0.0344849
0.0485229
0.0863647
0.121765
0.186157
0.203247
0.20874
0.210876
0.163269
0.0296021
-0.0946045
-0.157776
-0.14679
-0.119324
-0.111084
-0.101624
-0.071106
-0.0411987
-0.015564
0.0115967
0.0430298
0.0570679
0.0436401
0.0616455
0.0204468
-0.00274658
-0.00701904
-0.022583
-0.0128174
-0.0137329
0.00701904
0.00854492
-0.0164795
-0.0231934
0.00854492
0.0552368
0.0900269
0.105896
0.114441
0.122375
0.0912476
0.00549316
-0.0515747
-0.0653076
-0.0497437
-0.0537109
-0.0534058
-0.0390625
-0.0256348
-0.0128174
0.0112915
0.027771
0.0460815
0.0622559
0.0582886
0.0192261
-0.0338745
-0.0411987
-0.0375366
-0.00946045
0.0125122
0.012207
0.00976562
0.00976562
0.0497437
0.0814819
0.11261
0.129395
0.127869
0.126953
0.090332
0.0485229
-0.0341797
-0.128479
-0.105286
-0.0680542
-0.0546265
-0.0418091
-0.00488281
0.0289917
0.0445557
0.0650024
0.0534058
0.0402832
0.0216675
-0.0393677
-0.0808716
-0.100403
-0.093689
-0.0698853
-0.045166
-0.0238037
-0.00183105
0.00335693
0.00335693
-0.0183105
-0.0231934
-0.0161743
-0.0128174
-0.0228882
-0.0234985
-0.0180054
-0.017395
-0.00549316
0.0720215
0.195618
0.285034
0.342102
0.368042
0.330811
0.218506
0.0341797
-0.162048
-0.267944
-0.249939
-0.179443
-0.143127
-0.122375
-0.0952148
-0.0698853
-0.0552368
-0.0375366
-0.0372314
-0.0366211
-0.0198364
-0.0234985
-0.0274658
-0.015564
0.0119019
0.0411987
0.0744629
0.110168
0.159607
0.18158
0.205994
0.198364
0.145569
0.0244141
-0.0817871
-0.134888
-0.19165
-0.195007
-0.176392
-0.111389
-0.0411987
0.010376
0.0476074
0.0857544
0.0958252
0.0845337
0.0421143
0.0424194
0.0378418
0.00701904
-0.0125122
-0.0479126
-0.0302124
0
0.0213623
0.0119019
-0.0192261
-0.0363159
-0.0146484
0.0698853
0.127258
0.108948
0.0753784
0.0491333
0.0354004
0.00305176
-0.0891113
-0.122986
-0.0881958
-0.0326538
-0.0183105
-0.0088501
-0.0222778
-0.0558472
-0.0634766
-0.0765991
-0.0762939
-0.0469971
-0.0393677
-0.0238037
0
0.00427246
0.0256348
0.0405884
0.0613403
0.0790405
0.105286
0.126343
0.119629
0.0967407
0.0152588
-0.050354
-0.0830078
-0.0860596
-0.114136
-0.105591
-0.0802612
-0.0601196
-0.0497437
-0.0305176
-0.000915527
0.000305176
0.000610352
0.00366211
0.0164795
0.0579834
0.164795
0.310059
0.439148
0.536804
0.532227
0.400696
0.130005
-0.164185
-0.325012
-0.378418
-0.346985
-0.260925
-0.19043
-0.1297
-0.0863647
-0.0628662
-0.0271606
0.00366211
0.0268555
0.0637817
0.0994873
0.0848389
0.022583
-0.0408936
-0.13031
-0.162659
-0.133057
-0.113525
-0.117188
-0.119324
-0.111389
-0.0912476
-0.0827026
-0.0720215
-0.0592041
-0.0271606
-0.0088501
0.0253296
0.0448608
0.0753784
0.0918579
0.0973511
0.0820923
0.0564575
0.0357056
0.0167847
0.0119019
-0.0137329
-0.0164795
-0.0500488
-0.140686
-0.142212
-0.105896
-0.0646973
-0.0732422
-0.0521851
-0.0256348
0.00274658
0.0164795
0.0457764
0.0964355
0.151672
0.202637
0.254211
0.248108
0.198364
0.0909424
0.0198364
-0.0271606
-0.085144
-0.123596
-0.130005
-0.122375
-0.100403
-0.0552368
-0.0253296
0.0164795
0.0537109
0.072937
0.0765991
0.0524902
0.0106812
-0.0402832
-0.111694
-0.132141
-0.130005
-0.11322
-0.113831
-0.085144
-0.0296021
-0.00732422
0.0134277
-0.0152588
-0.0375366
-0.0296021
-0.022583
0.00671387
0.0656128
0.0912476
0.0732422
0.057373
0.0537109
0.0192261
-0.00457764
0.0363159
0.071106
0.0598145
0
0.015564
0.0405884
0.0418091
0.0549316
0.0827026
0.123291
0.115051
0.0778198
0.0460815
-0.0314331
-0.0628662
-0.0588989
-0.00671387
0.0354004
0.045166
0.0216675
-0.00488281
-0.0265503
-0.00732422
0.0231934
0.0119019
0.00335693
0.0216675
0.0393677
0.0546265
0.0506592
0.0268555
-0.00488281
-0.0613403
-0.0253296
0.0262451
0.0811768
0.115662
0.09552
0.100403
0.115356
0.0671387
-0.0112915
-0.020752
-0.0177002
-0.0463867
-0.0863647
-0.0604248
-0.022583
-0.00579834
0.000915527
0.0192261
0.0509644
0.0662231
0.0650024
0.0579834
0.045166
0.0616455
0.0360107
0.0286865
0.0656128
0.107727
0.137329
0.158081
0.118103
0.00183105
-0.0686646
-0.0765991
-0.0765991
-0.0500488
-0.0302124
-0.0228882
-0.015564
0.0192261
0.0717163
0.117493
0.155945
0.187988
0.192871
0.149231
0.0817871
-0.0115967
-0.0546265
-0.0460815
-0.0637817
-0.0967407
-0.0570679
-0.00488281
0.0588989
0.0790405
0.0765991
0.0650024
0.0802612
0.0598145
0.0366211
0.0894165
0.116272
0.0497437
-0.00701904
-0.0378418
-0.0576782
-0.0515747
-0.0537109
-0.0805664
-0.0909424
-0.0543213
-0.010376
0.0210571
0.0418091
0.0314331
0.00579834
-0.0271606
-0.0448608
-0.0231934
0.0149536
0.038147
0.0497437
0.0582886
0.0521851
0.0418091
0.0445557
0.050354
0.0375366
0.0149536
-0.0143433
-0.010376
0.0106812
0.038147
0.0509644
0.0479126
0.00946045
0.00732422
-0.00244141
0
0.017395
0.0366211
0.0695801
0.0875854
0.108337
0.107117
0.122375
0.0802612
-0.00793457
-0.0701904
-0.0854492
-0.0784302
-0.0460815
0.0112915
0.078125
0.132751
0.140076
0.108032
0.027771
-0.0341797
-0.0692749
-0.112915
-0.166626
-0.166321
-0.140991
-0.0769043
-0.0524902
-0.0402832
-0.0463867
-0.0384521
-0.0289917
-0.00946045
-0.0134277
-0.0344849
-0.0320435
-0.0106812
-0.00396729
0.00488281
0.00823975
0.0106812
0.00946045
0.0140381
0.0140381
-0.00274658
-0.00671387
-0.0210571
-0.00701904
-0.00183105
-0.0180054
-0.0268555
-0.0320435
-0.020752
0.00793457
0.0177002
0.0228882
0.0167847
0.0268555
0.0369263
0.0280762
0.0268555
0.00305176
0.0265503
0.0238037
-0.0234985
-0.00183105
0.00579834
-0.0115967
-0.0146484
-0.00152588
-0.0143433
-0.0375366
-0.0134277
0.00732422
0.00396729
0
-0.0137329
-0.00274658
0.00640869
0.0390625
0.050354
0.0610352
0.0570679
0.0360107
0.0292969
0.020752
0.000610352
-0.0283813
-0.0320435
-0.0140381
-0.0115967
-0.00732422
0
-0.0292969
-0.0628662
-0.0756836
-0.0704956
-0.067749
-0.0366211
-0.0131226
0
-0.0189209
-0.00701904
0.0012207
0.00701904
0.0131226
0.0183105
-0.00762939
-0.027771
-0.0238037
-0.0320435
-0.0231934
-0.0149536
-0.0238037
-0.00518799
0
0.00152588
0.00518799
-0.00213623
0.00579834
0.00366211
0.00518799
-0.0112915
0
-0.00152588
0.00579834
0.00823975
-0.00366211
-0.00640869
0.000305176
-0.00457764
-0.00549316
0.00183105
0.000915527
-0.00915527
-0.0320435
-0.0137329
0.0222778
0.0427246
0.057373
0.0497437
0.0350952
0.0289917
0.0106812
0.0183105
0.0366211
0.0692749
0.0723267
0.0567627
0.0292969
0.00488281
0.00701904
0
-0.00396729
0.00640869
0.00671387
-0.00610352
0.00549316
0.0283813
0.0140381
0.0192261
-0.0146484
-0.032959
-0.0308228
-0.0180054
-0.0146484
-0.00976562
0.00366211
0.0128174
0.0137329
0.0350952
0.0357056
0.012207
-0.00488281
0.00213623
0.00946045
0.010376
0.00762939
0.00762939
0.017395
0.0186157
0.0170898
0.00183105
0.0134277
0.0286865
0.0183105
0.00671387
0.00183105
-0.00610352
0.00976562
0.0161743
0.0161743
0.00488281
0.0210571
0.015564
0.017395
0.0137329
0.0247192
0.0134277
0.0143433
0.0204468
0.032959
0.0213623
0.00579834
-0.00152588
0.00183105
0.0012207
0.00610352
0.0149536
0.00579834
-0.00366211
0
0.0119019
0.0195312
0.0180054
0.0186157
0.0292969
0.0216675
0.0256348
0.0286865
0.0323486
0.038147
0.0466919
0.0396729
0.0234985
0.0344849
0.0265503
0.0134277
0.0405884
0.0442505
0.0314331
0.0302124
0.0344849
0.0228882
0.0216675
0.0228882
0.0271606
0.0271606
0.0201416
0.0167847
0.0286865
0.0241089
0.0360107
0.0360107
0.0210571
0.0344849
0.0354004
0.017395
0.00640869
0.0106812
0.0228882
0.0259399
0.0231934
0.0192261
0.0192261
0.0213623
0.0296021
0.0271606
0.0305176
0.027771
0.0311279
0.0140381
0.012207
0.0216675
0.0363159
0.0402832
0.0259399
0.00305176
0.0198364
0.0357056
0.0448608
0.0405884
0.0372314
0.0231934
0.00946045
0.00366211
-0.0137329
-0.00762939
0.00610352
0.00244141
0.00854492
0.027771
0.0338745
0.0143433
0.0201416
0.0125122
0.0119019
0.0192261
0.0152588
-0.010376
-0.0268555
-0.0268555
-0.0228882
-0.0308228
-0.0219727
-0.0308228
-0.0213623
-0.0112915
0
0.00946045
-0.00305176
-0.00183105
-0.00152588
-0.00396729
0.00366211
-0.00274658
-0.00671387
0
-0.0088501
-0.00793457
-0.0112915
-0.0100708
-0.0149536
-0.0112915
-0.0262451
-0.0418091
-0.0265503
-0.00488281
0.00152588
-0.00640869
-0.012207
-0.0299072
-0.050354
-0.0408936
-0.0222778
-0.0210571
-0.0265503
-0.0228882
-0.0219727
-0.0296021
-0.0305176
-0.0268555
-0.0256348
-0.0271606
-0.022583
-0.0302124
-0.020752
-0.0305176
-0.0244141
-0.0204468
-0.0158691
-0.00457764
-0.0125122
-0.00762939
0.0088501
0.0143433
0.0115967
0
-0.0158691
-0.0219727
-0.0210571
-0.0149536
-0.0100708
-0.00640869
-0.0186157
-0.0125122
-0.0106812
-0.0128174
-0.0164795
-0.017395
-0.0213623
-0.0222778
-0.00640869
-0.00335693
0.00610352
0.00488281
0.0112915
0.00518799
-0.017395
-0.00671387
-0.00762939
-0.00854492
0.0109863
0.012207
0.015564
0.0228882
0.0140381
-0.0152588
-0.00457764
0.00152588
-0.00274658
0.0012207
0.0265503
0.0119019
0.0228882
0.027771
0.015564
0.0140381
0.00518799
-0.00183105
-0.0167847
-0.00793457
-0.0125122
0.0170898
0.017395
0.0204468
0.0198364
0.0164795
0.0170898
0.0250244
0.0286865
0.0326538
0.0314331
0.039978
0.0476074
0.043335
0.0497437
0.0357056
0.0390625
0.0427246
0.0457764
0.0421143
0.0418091
0.0506592
0.0384521
0.0436401
0.0476074
0.0494385
0.0561523
0.0613403
0.062561
0.0631714
0.0613403
0.0653076
0.0720215
0.0753784
0.0686646
0.0793457
0.0790405
0.0888062
0.0741577
0.0653076
0.062561
0.067749
0.0595093
0.0653076
0.0741577
0.0753784
0.0759888
0.0827026
0.0790405
0.0802612
0.0820923
0.0836182
0.0946045
0.0918579
0.0942993
0.0933838
0.0930786
0.0860596
0.0875854
0.0811768
0.0808716
0.0778198
0.085144
0.0888062
0.101318
0.078125
0.0473022
0.0805664
0.0872803
0.0848389
0.0827026
0.083313
0.0869751
0.0866699
0.0817871
0.0863647
0.0854492
0.0802612
0.0723267
0.0698853
0.0665283
0.0854492
0.0863647
0.0857544
0.0521851
0.0717163
0.0695801
0.0683594
0.0723267
0.0787354
0.0759888
0.0765991
0.0631714
0.067749
0.0680542
0.0689697
0.0823975
0.0674438
0.0662231
0.065918
0.0656128
0.0680542
0.0680542
0.0708008
0.0592041
0.065918
0.0521851
0.0497437
0.0537109
0.0582886
0.0561523
0.0476074
0.0222778
0.0366211
0.0518799
0.0491333
0.0531006
0.0531006
0.0460815
0.0427246
0.0427246
0.0405884
0.0323486
0.0296021
0.0375366
0.0418091
0.0302124
0.027771
0.0311279
0.0292969
0.0350952
0.0265503
0.0271606
0.0289917
0.0286865
0.0326538
0.0271606
0.0216675
0.0213623
0.0219727
0.0210571
0.00976562
0.00335693
0.000915527
0.00640869
0.00396729
0.000305176
-0.00305176
0.00762939
0.00335693
0.00946045
0.0195312
0
0
-0.00396729
0.00701904
0.0161743
0.00579834
0.00518799
0.0012207
-0.00335693
-0.00366211
-0.00244141
-0.0143433
-0.00366211
-0.00457764
0.00457764
0
0.00396729
-0.0177002
-0.0262451
-0.0271606
-0.0234985
-0.0189209
-0.0234985
-0.0311279
-0.0256348
-0.0213623
-0.0192261
-0.0289917
-0.0317383
-0.0442505
-0.0527954
-0.0354004
-0.0222778
-0.0320435
-0.0241089
-0.0222778
-0.0228882
-0.0332642
-0.0372314
-0.0390625
-0.0540161
-0.0537109
-0.045166
-0.039978
-0.0378418
-0.0335693
-0.0350952
-0.0387573
-0.0436401
-0.0405884
-0.0457764
-0.0439453
-0.0299072
-0.0302124
-0.0286865
-0.0323486
-0.0448608
-0.0460815
-0.0460815
-0.0375366
-0.0378418
-0.0421143
-0.0411987
-0.0338745
-0.0296021
-0.0308228
-0.0393677
-0.0274658
-0.0308228
-0.039978
-0.0369263
-0.0350952
-0.0323486
-0.0357056
-0.027771
-0.0283813
-0.0302124
-0.0396729
-0.0332642
-0.0402832
-0.0418091
-0.0393677
-0.0390625
-0.0491333
-0.0393677
-0.0387573
-0.0338745
-0.0396729
-0.0262451
-0.0283813
-0.0256348
-0.0299072
-0.032959
-0.0350952
-0.0292969
-0.0289917
-0.0326538
-0.0247192
-0.0210571
-0.0210571
-0.0210571
-0.0323486
-0.0320435
-0.0296021
-0.0299072
-0.0204468
-0.0198364
-0.0216675
-0.0326538
-0.0363159
-0.038147
-0.0317383
-0.0314331
-0.0335693
-0.0332642
-0.022583
-0.0161743
-0.0210571
-0.0259399
-0.0296021
-0.0308228
-0.0314331
-0.0201416
-0.0231934
-0.0271606
-0.0228882
-0.0198364
-0.0189209
-0.0167847
-0.0112915
-0.0134277
-0.0247192
-0.032959
-0.0436401
-0.0384521
-0.0234985
-0.0222778
-0.0283813
-0.0341797
-0.03479
-0.0311279
-0.0296021
-0.0323486
-0.0289917
-0.0283813
-0.0216675
-0.0152588
-0.0192261
-0.0140381
-0.00518799
-0.0161743
-0.0247192
-0.0234985
-0.0152588
-0.0271606
-0.0183105
0.00427246
-0.00946045
-0.0128174
-0.0292969
-0.0177002
-0.017395
-0.0326538
-0.0320435
-0.0183105
-0.0244141
-0.022583
-0.0192261
-0.0152588
-0.0189209
-0.0198364
-0.0164795
-0.00457764
-0.017395
-0.0164795
-0.015564
-0.00213623
-0.00701904
-0.0210571
-0.0238037
-0.0234985
-0.0314331
-0.0335693
-0.0305176
-0.0360107
-0.027771
-0.0244141
-0.0228882
-0.0115967
0.00640869
0.00488281
-0.0106812
-0.0213623
-0.0192261
-0.0198364
-0.0262451
-0.0265503
-0.0183105
-0.0311279
-0.0198364
-0.0210571
-0.0167847
-0.0256348
-0.0256348
-0.0259399
-0.0259399
-0.0308228
-0.017395
-0.0167847
-0.0115967
-0.017395
-0.00366211
-0.0125122
-0.0244141
-0.0323486
-0.0341797
-0.0320435
-0.0201416
-0.0131226
-0.00396729
-0.0192261
-0.0250244
-0.0231934
-0.0357056
-0.0283813
-0.0186157
-0.010376
-0.0170898
-0.0115967
-0.0143433
-0.0222778
-0.0143433
-0.0164795
-0.0195312
-0.0244141
-0.0286865
-0.0296021
-0.0219727
-0.0231934
-0.0228882
-0.020752
-0.0198364
-0.0131226
-0.0100708
-0.0161743
-0.0158691
-0.0201416
-0.0228882
-0.0146484
-0.010376
-0.012207
-0.0100708
-0.0106812
-0.00946045
-0.0012207
-0.00701904
-0.0106812
-0.0308228
-0.00793457
-0.00946045
-0.00427246
-0.0100708
-0.0143433
-0.0238037
-0.0292969
-0.020752
-0.0198364
-0.017395
-0.0131226
-0.010376
-0.00274658
0.000915527
0.00488281
0.0106812
0.0201416
0.00579834
0
-0.0286865
-0.0408936
-0.0405884
-0.0247192
-0.0241089
-0.0259399
-0.0216675
-0.0100708
-0.0210571
-0.0228882
-0.0167847
-0.0186157
-0.0106812
-0.0128174
-0.0137329
-0.0131226
-0.0146484
-0.0167847
-0.0146484
-0.00640869
-0.0158691
-0.0192261
-0.0241089
-0.0128174
-0.0112915
-0.00366211
-0.0131226
-0.0210571
-0.00579834
-0.00671387
-0.00579834
-0.0146484
-0.0100708
-0.00427246
-0.00396729
0.000915527
0.000305176
0.000915527
-0.0119019
-0.0125122
-0.00701904
-0.0100708
0.000305176
0.00396729
0.00549316
0.000305176
0.00732422
0.0100708
0
0.0012207
0.00152588
-0.00213623
0.00396729
0.0112915
0.0125122
0.00854492
0.000305176
-0.0112915
-0.00396729
0.00549316
0.00610352
0.00396729
0
0.00793457
0.000915527
0.00579834
0.000305176
-0.00213623
-0.00305176
-0.0210571
-0.0012207
-0.00823975
-0.0100708
-0.0088501
0.00274658
0.0143433
-0.0119019
0
0.00366211
0.000915527
0.000915527
0.00701904
-0.00701904
0.00396729
0.000915527
-0.00396729
-0.00640869
-0.0128174
-0.0317383
-0.020752
-0.00213623
0.012207
0.00946045
0.00518799
0.00610352
0.00793457
0.0167847
0.0131226
0.00915527
0.00366211
0.00366211
0
-0.00366211
-0.00396729
0.00640869
0.00183105
-0.00457764
-0.00152588
0.00213623
0.00732422
-0.00396729
-0.00518799
-0.00549316
-0.00213623
0.0106812
0
0.00701904
0.00488281
0.00396729
-0.00183105
-0.00579834
-0.00762939
-0.00854492
-0.0100708
0.00518799
0.00213623
0.0012207
-0.00579834
0.000915527
-0.00793457
-0.0180054
-0.0131226
0.00579834
0.00366211
0.00244141
-0.00579834
-0.0088501
-0.00335693
-0.00427246
0.00701904
0.00396729
0.00213623
-0.00488281
-0.00366211
0
0.012207
0.00854492
0.0115967
-0.00427246
-0.0012207
-0.00732422
-0.0125122
-0.0109863
-0.0198364
-0.0088501
0.0128174
0.0164795
0.0201416
0.00946045
0.00610352
0.000305176
0.000305176
-0.00152588
-0.0088501
-0.0195312
0
0.00366211
0.00671387
0.00335693
0.0106812
0.00915527
-0.00335693
0.00610352
0.00183105
0
0.00976562
0.0134277
0.00915527
0.0119019
0.015564
0.0247192
0.0106812
0.00762939
0.00396729
0.00183105
0.00671387
0.00305176
0.0012207
-0.00274658
0.00244141
-0.00457764
0.000915527
0.00671387
0.00823975
0.00823975
0.00640869
0.00701904
0.00518799
0.0088501
0.00671387
0.00610352
-0.00488281
-0.00579834
-0.00152588
0.00152588
-0.0109863
0.00366211
0.0146484
0.0201416
0.0106812
0.0134277
0.00549316
0.00946045
0.0112915
0.00335693
0.000915527
0.00335693
0.00946045
0.0189209
0.0222778
0.0167847
0.0143433
0.0112915
0.00823975
0
0.0100708
0.0164795
0.0210571
0.0213623
0.0250244
0.0262451
0.0106812
0.010376
0.0143433
0.00823975
0.00732422
0.00183105
0.0119019
0.0234985
0.0268555
0.0259399
0.00762939
0.00366211
0.00183105
0.00396729
0.00213623
0.00274658
0.0231934
0.0189209
0.00671387
0.0219727
0.0140381
0.00671387
0.00396729
0.0204468
0.0112915
-0.00915527
0.00213623
0.0128174
0.00946045
0.0146484
0.0195312
0.0088501
0.00640869
0.00549316
0.00518799
0.00274658
0.0210571
0.0222778
0.00915527
0.0100708
0.00823975
0.0204468
0.00488281
0.00823975
0.0088501
0.00457764
0.00518799
0.0112915
0.0112915
0.0125122
0.0146484
0.00762939
0.00671387
0.0177002
0.0170898
0.0158691
0.00610352
0.0143433
0.0201416
0.0186157
0.00823975
0.00518799
0.0115967
0.010376
0.000915527
-0.0137329
0.00183105
0.0146484
0.00976562
0.0146484
0.0195312
0.0192261
0.0167847
0.0167847
0.0125122
0.00183105
-0.00427246
0.0119019
0.0201416
0.00579834
0.0012207
0.0109863
0.00579834
0.0134277
0.0137329
0.0106812
0.00335693
0.0088501
0.00579834
0.00366211
0.015564
0.0128174
0.0183105
0.0204468
0.00701904
0.00549316
0.00854492
0.020752
0.000915527
0.0109863
0.010376
0.00946045
0.00701904
0.00457764
0.00366211
0.00823975
0.00854492
0.0137329
0.0125122
0.0125122
0.0180054
0.0198364
0.0244141
0.0195312
0.0134277
0.0146484
0.00488281
0.0137329
0.0183105
0.0177002
0.0183105
0.0088501
0.00701904
0.00640869
0.010376
0.0119019
0.0241089
0.010376
0.0158691
0.0262451
0.0234985
0.0170898
0.00457764
0.00305176
0.00366211
0.00701904
0.0119019
0.00946045
0.00915527
0.0146484
0.0125122
0.00610352
0.00823975
0.0140381
0.0140381
0.0241089
0.0164795
0.0137329
0.00823975
0.0204468
0.0100708
0.0192261
0.0189209
0.0231934
0.0149536
0.0149536
0.0167847
0.0128174
0.0106812
0.022583
0.0128174
0.00213623
0.0119019
-0.00946045
0.000915527
-0.0112915
-0.0106812
0.00457764
0.0228882
0.00457764
0.0106812
-0.00213623
0.00335693
0.0427246
0.0216675
0.0210571
0.0201416
0.0152588
0.00854492
0.0115967
0.0183105
0.00823975
0.0149536
0.0131226
0.00427246
0.0167847
0.0177002
0.0106812
0.015564
0.0192261
0.0180054
0.0189209
0.0189209
0.0186157
0.0164795
0.00701904
0.0134277
0.015564
0.0106812
0.00701904
0.00946045
0.0192261
0.0088501
0.00762939
0.00488281
-0.00427246
0.00854492
0.00610352
0.00427246
0.0201416
0.0131226
0.0143433
0.0241089
0.017395
0.0106812
0.0137329
0.00579834
-0.00152588
0.000610352
0.00579834
0.0167847
0.0195312
0.00396729
-0.00274658
0.00701904
0.00793457
0.00762939
0.00762939
0.00946045
0.0137329
0.0216675
0.0143433
0.0125122
0.00946045
0.00701904
0.0100708
0.0161743
0.0115967
0.00579834
0.012207
0.00854492
0.0137329
0.00946045
-0.00274658
0.0012207
0.00427246
0.000915527
0.00427246
0.00213623
-0.00183105
-0.00152588
0.000305176
0.00946045
0.0143433
0.0115967
0.0192261
0.000915527
0.00244141
0.00213623
0.000610352
0.000305176
-0.00427246
-0.00518799
-0.0100708
-0.00427246
0.00457764
0.000915527
0.00732422
0.0131226
0.0161743
0.00640869
-0.00274658
-0.0140381
-0.00488281
0.00579834
0.020752
0.0140381
0.00488281
0.0134277
0.0128174
0.00152588
0.000305176
0.0109863
0.0109863
0.00701904
-0.00488281
-0.0119019
-0.00152588
-0.00244141
0.00457764
0.00335693
0.0109863
0.0106812
0.0164795
0.0128174
0.00732422
0.0112915
0.0134277
0.0161743
0.0186157
0.00946045
0.0192261
0.0131226
0.00427246
0.00732422
0
-0.00183105
-0.00244141
-0.00152588
0.00701904
0.0115967
0.00244141
0.00671387
0.00305176
0.00762939
0.0146484
0.0125122
0.00396729
0.00305176
0.00488281
0.000915527
-0.00213623
-0.00640869
0.0198364
0.010376
0.000305176
0.000305176
0.00701904
0.0134277
0.00793457
0.00183105
0.000915527
0.00762939
0.0143433
0.0131226
0.0149536
0.022583
0.0167847
0.0180054
0.0204468
0.017395
0.00305176
-0.00396729
0.015564
0.0106812
0.00518799
0.00946045
-0.00183105
-0.00854492
-0.0100708
0.0012207
0.00549316
0.0100708
0.00976562
0.0119019
0.00732422
0.0189209
0.0149536
0.00946045
0.00640869
-0.00274658
-0.0012207
0.0088501
0.000610352
0.00946045
-0.0012207
0.0204468
0.0106812
0.0134277
0.00579834
0.00579834
0.0128174
0.00457764
0.00244141
-0.00396729
0.00946045
0.012207
0.000915527
0.00396729
0.00762939
0.00610352
0.0134277
0.00427246
0.0119019
0.0259399
0.0338745
0.0201416
0.0131226
0.000915527
0.00396729
-0.00762939
0.00640869
0.0131226
0.00396729
0.00335693
0.012207
0.00762939
0.00457764
0.0189209
0.017395
0.0100708
0.00732422
0.0112915
0.00274658
0.0646973
0.0158691
0.012207
0.00701904
0
0.0088501
0.00793457
0.00762939
0.00213623
-0.00213623
0.00518799
0.0134277
0.0167847
0.0228882
0.0164795
0.0115967
0.000610352
0.0012207
0.00915527
0.000305176
-0.00457764
-0.00305176
0.000915527
0
-0.00671387
0
0.0012207
-0.0201416
-0.00518799
-0.00183105
0.00457764
-0.00335693
0.00457764
0.0125122
0.0183105
0.0177002
0.0137329
0.00274658
0
0.00213623
0.0106812
-0.00793457
0.00518799
0.0109863
0.0164795
0.0106812
0.0143433
0.0134277
-0.00183105
0.0115967
0.00549316
0.00549316
0
0.0128174
0.0088501
0
0.00213623
0.00671387
0.00701904
0.00335693
0
-0.017395
-0.00152588
0.00335693
0.00335693
0.00488281
-0.00396729
0.0012207
0.00213623
0.00915527
0.0112915
0.0112915
0.0125122
0.0241089
0.0189209
0.0137329
0.0280762
0.0186157
0.0192261
0.0189209
0.00946045
0.0234985
0.012207
0.0186157
0.0177002
0.0286865
0.00946045
0.0109863
0.00946045
0.0088501
0.0143433
0.00213623
0.00549316
0.0088501
0.00396729
0.0131226
0.0134277
0.00915527
0.0112915
0.00762939
0.0100708
-0.0152588
-0.0143433
0.00701904
0.000610352
0.0146484
0.015564
0.0112915
0.0112915
0.00213623
0.00244141
0.00396729
0.0131226
0.00854492
-0.00671387
0.0140381
0.0158691
0.0177002
0.0106812
0.0149536
0.0140381
0.0204468
-0.00640869
-0.00579834
0.00854492
