0.00335693
-0.00457764
0.0109863
0.032959
0.0299072
0.0265503
0.0491333
0.0494385
0.0250244
0.0192261
0.0476074
0.0491333
0.0457764
0.0491333
0.0802612
0.0689697
0.0427246
0.0131226
0.00701904
0.0137329
-0.00427246
-0.00457764
0.0152588
0.0271606
0.0354004
0.0296021
0.0216675
0.0308228
0.0158691
-0.03479
-0.0262451
-0.00274658
0.0164795
0.0344849
0.0448608
0.0683594
0.0509644
0.00610352
0
-0.00854492
-0.00213623
0.0234985
0.0387573
0.0360107
0.027771
0.0149536
0.0115967
0.0238037
0.027771
0.0128174
0.0131226
0.0192261
0.0222778
0.0192261
0.00671387
-0.00335693
-0.00946045
-0.0106812
0.000915527
0.0238037
0.0338745
0.0308228
0.0115967
-0.0143433
-0.0271606
-0.0146484
0.0149536
0.0305176
0.0219727
0
0.0198364
0.0305176
0.0222778
0.0170898
0.0106812
0.0189209
0.0473022
0.0561523
0.0439453
0.0231934
-0.00244141
-0.0222778
0.0192261
0.0466919
0.043335
0.0314331
0.0146484
-0.0177002
-0.039978
-0.09552
-0.12085
-0.0637817
-0.0146484
0.0164795
0.0765991
0.0817871
0.0796509
0.0454712
0.0323486
0.0769043
0.0637817
0.0183105
0.0088501
-0.00396729
0
0.00457764
0.022583
0.020752
-0.00793457
-0.0253296
-0.0161743
0.0286865
0.0350952
0.0192261
0.0125122
0.0283813
0.0128174
-0.0128174
-0.00701904
0.00457764
-0.00793457
0.0286865
0.0375366
0.0296021
0.00396729
0.00701904
0.00549316
-0.00610352
-0.00396729
-0.015564
0.00518799
0.00457764
0.0234985
0.0305176
0.0402832
0.0393677
0.0222778
0.0463867
0.0387573
-0.0259399
-0.071106
-0.0656128
-0.0344849
-0.0012207
-0.00366211
-0.0253296
-0.010376
0.0119019
0.00946045
0.0167847
0.0234985
0.0134277
0.0167847
0.00366211
-0.00518799
-0.00640869
0.0106812
0.0195312
0.0131226
0.0268555
0.0375366
0.0442505
0.0338745
0.00579834
-0.0131226
0.00274658
0.00305176
0.0143433
0.0143433
0
0.0360107
0.0549316
0.0579834
0.0491333
-0.0180054
-0.0765991
-0.125427
-0.137329
-0.088501
-0.0448608
-0.0143433
0.0271606
0.0497437
0.0442505
0.0732422
-0.00640869
-0.0228882
-0.0131226
0.00946045
0.0146484
0.0314331
0.0744629
0.104675
0.127869
0.158691
0.138855
0.126343
0.098877
0.0744629
0.0274658
-0.0253296
-0.0686646
-0.0723267
-0.0582886
-0.0509644
-0.045166
-0.0811768
-0.085144
-0.0686646
-0.0549316
-0.0485229
-0.0189209
0.0210571
0.00274658
-0.0415039
-0.0369263
-0.0448608
-0.0442505
-0.0488281
-0.0723267
-0.0643921
-0.0125122
-0.00244141
0.00396729
0.0158691
0.00579834
-0.0186157
-0.0170898
0.000305176
0.0125122
0.0119019
-0.0161743
-0.020752
-0.0158691
-0.0164795
-0.0369263
-0.0320435
-0.0125122
0.00793457
-0.00396729
0.00213623
0.0115967
0.0320435
0.00671387
-0.00640869
-0.0366211
-0.0265503
-0.0131226
-0.00793457
0.00762939
0.0210571
0.0106812
0.00701904
-0.0198364
-0.0390625
-0.0283813
-0.0183105
0.00518799
0.0482178
0.0372314
-0.00701904
-0.0384521
-0.012207
0.00671387
0.0189209
0.0100708
-0.0137329
0
0.00732422
-0.00762939
-0.0296021
-0.03479
0.0106812
0.0146484
0.0192261
0.0506592
0.0708008
0.0558472
0.0482178
0.0552368
0.0500488
0.0457764
0.0302124
0.00396729
-0.0363159
-0.0686646
-0.0305176
-0.00640869
0.000915527
-0.00152588
0.00640869
0.0280762
0.0296021
0.027771
0.020752
-0.00732422
-0.0222778
-0.00305176
0.00152588
0.000305176
-0.0189209
-0.0479126
-0.105286
-0.114441
-0.0842285
-0.0454712
-0.0128174
0.0289917
0.0378418
0.00427246
-0.0662231
-0.0845337
-0.0732422
-0.027771
0.00732422
0.0405884
0.0769043
0.078125
0.0723267
0.0811768
0.078125
0.0466919
0.0119019
-0.0222778
-0.0732422
-0.0604248
-0.0341797
0.00152588
0.0216675
0.0442505
0.0250244
-0.0149536
-0.0296021
-0.00518799
0.020752
0.0140381
0.0210571
0.00396729
-0.00671387
-0.0271606
-0.0088501
0.00244141
-0.00854492
-0.0137329
0.00244141
0.0231934
0.0180054
0.0216675
0.03479
0.0311279
0.0314331
0.0424194
0.0323486
0.0119019
-0.00213623
-0.0216675
-0.03479
-0.0387573
-0.0201416
-0.0115967
-0.0280762
-0.0476074
-0.0610352
-0.0537109
-0.0369263
0.00701904
0.0448608
0.0830078
0.107117
0.0997925
0.0854492
0.0506592
0.0338745
-0.00244141
-0.0320435
-0.0756836
-0.0485229
-0.0137329
-0.00183105
-0.0271606
-0.0421143
-0.0579834
-0.067749
-0.0747681
-0.112
-0.0924683
-0.0338745
-0.010376
-0.00579834
0.00946045
0.0253296
0.0302124
0.0335693
0.00946045
-0.0109863
-0.027771
-0.0540161
-0.067749
-0.0506592
-0.0289917
-0.00396729
0.0180054
0.0250244
0.0341797
0.0436401
0.0296021
0.043335
0.0357056
-0.00793457
-0.055542
-0.038147
-0.0274658
-0.0531006
-0.0692749
-0.0665283
-0.043335
-0.038147
-0.0244141
-0.0323486
-0.0286865
0.00366211
0.0143433
0.0106812
0.0167847
-0.00274658
0.0100708
0.0402832
0.0790405
0.122986
0.12146
0.115051
0.0863647
0.0411987
-0.0158691
-0.0732422
-0.0717163
-0.0186157
-0.0177002
0.00701904
0.0231934
0.0344849
-0.0161743
-0.0491333
-0.0527954
-0.0344849
-0.0430298
-0.0283813
-0.0143433
0.012207
0.022583
0.0189209
0.0115967
0.0128174
0.022583
0.0265503
0.0106812
0.000915527
0.0234985
0.0192261
0.00427246
-0.0180054
-0.0595093
-0.093689
-0.0546265
-0.00610352
0.0170898
0.00610352
0.0396729
0.0390625
0.0201416
-0.0115967
-0.050354
-0.0671387
-0.00366211
0.0570679
0.0558472
0.000610352
-0.027771
-0.0296021
-0.0146484
-0.0210571
-0.0149536
0.00366211
0.0238037
0.00335693
-0.00457764
0.00671387
0.0259399
0.0341797
0.0192261
0.0247192
0.0106812
-0.0137329
-0.0262451
-0.0109863
0.00213623
0.0100708
0.0115967
0.0183105
0.0350952
0.00610352
-0.0262451
-0.0473022
-0.045166
-0.0375366
-0.0646973
-0.0320435
0.0665283
0.0744629
0.0674438
0.0512695
0.032959
0.0186157
0.0128174
-0.00396729
-0.0177002
-0.0460815
-0.0509644
-0.0146484
0.000610352
0.043335
0.0796509
0.0701904
0.0283813
0.0213623
-0.0131226
-0.0512695
-0.0521851
-0.0509644
-0.0198364
0.00946045
0.0180054
0.0531006
0.0186157
0.00579834
0.00427246
-0.00823975
-0.0244141
-0.050354
-0.0827026
-0.078125
-0.0393677
-0.0146484
-0.0161743
-0.0259399
-0.00610352
0.0280762
0.0546265
0.0775146
0.0662231
0.0396729
0.0527954
0.0668335
0.0524902
0.0256348
0.0115967
0.0216675
0.0302124
0.038147
0.0283813
0.0115967
0.0390625
0.0112915
0.00701904
0.022583
0.0454712
0.050354
0.0460815
0.0424194
0.0384521
0.0241089
0.015564
0.0146484
0.0332642
0.00335693
-0.00366211
-0.0100708
0.0457764
0.0930786
0.114136
0.0912476
0.0402832
-0.0149536
-0.0296021
-0.0692749
-0.078125
-0.0717163
-0.0796509
-0.0888062
-0.0540161
-0.0149536
0.0332642
0.0485229
0.0680542
0.0408936
0
-0.0375366
-0.0271606
-0.0244141
-0.0491333
-0.038147
0.0219727
0.050354
0.055542
0.032959
0.0283813
0.0338745
0.0271606
0.00396729
0.0247192
0.0375366
-0.00549316
0.0119019
0.0558472
0.0448608
0.0390625
-0.00640869
-0.0497437
-0.0656128
-0.0692749
-0.0283813
0.0250244
0.0482178
0.0283813
0.0436401
0.0592041
0.0759888
0.06073
0.0497437
0.0460815
0.0552368
0.0552368
0.0308228
-0.0296021
-0.0656128
-0.0509644
-0.0311279
0
0.00671387
0.010376
0.0268555
0.0457764
0.0332642
-0.0088501
-0.00793457
0.0750732
0.0741577
0.0604248
0.0363159
0.017395
-0.0210571
-0.045166
-0.0442505
-0.0161743
0.0234985
0.0253296
0.0119019
0.0222778
0.0149536
-0.0134277
0.0262451
0.105286
0.113525
0.0643921
0.0234985
0.0192261
-0.00152588
-0.0204468
-0.00610352
0.00671387
-0.0161743
-0.0845337
-0.134277
-0.11322
-0.0189209
0.0213623
0.00152588
-0.00701904
0.0134277
0.0189209
0.00671387
-0.00305176
-0.0366211
-0.111389
-0.159302
-0.112305
-0.0524902
-0.0405884
-0.0335693
-0.0140381
0
0.0320435
0.0601196
0.0531006
0.0570679
0.0177002
-0.0210571
-0.0430298
-0.0271606
0.0396729
0.0344849
0.00946045
0.0119019
-0.00305176
0.015564
0.0393677
0.00915527
-0.020752
-0.0521851
-0.0442505
0.00457764
0.0210571
-0.00213623
-0.0180054
-0.0253296
-0.0143433
-0.010376
-0.0213623
-0.0430298
-0.0271606
-0.00335693
-0.015564
0.00335693
0.0106812
-0.00396729
-0.0170898
0.00610352
0.00610352
-0.0170898
-0.0405884
-0.0674438
-0.105591
-0.0875854
-0.0787354
-0.0592041
-0.0109863
0.0402832
0.0335693
0.00762939
0.00488281
0.00976562
-0.00213623
0.00488281
0.0317383
0.0628662
0.0384521
0.0305176
0.0442505
0.0274658
0.00152588
-0.0473022
-0.0772095
-0.0888062
-0.0997925
-0.0827026
-0.0592041
-0.0405884
-0.0360107
-0.0479126
-0.0436401
-0.0320435
-0.0189209
-0.00854492
-0.0088501
0
0.022583
0.0158691
-0.0210571
-0.0393677
-0.0195312
0
0.0012207
-0.00274658
0.00946045
0.00457764
-0.0308228
-0.0393677
-0.0198364
-0.0341797
-0.0582886
-0.0579834
-0.0262451
0.010376
0.0509644
0.0708008
0.0582886
0.0268555
-0.0100708
-0.0274658
-0.0708008
-0.108032
-0.0817871
-0.00549316
0.0314331
0.06073
0.039978
0.00854492
-0.00396729
0.0253296
0.0247192
0.00488281
0.0125122
0.0314331
0.0317383
0.0384521
0.0305176
-0.00457764
-0.0137329
0.00244141
-0.0137329
-0.0387573
-0.0357056
-0.0146484
-0.00823975
0.0115967
0.0421143
0.0485229
0.0332642
0.0128174
-0.0109863
-0.0396729
-0.0216675
-0.0143433
-0.0201416
-0.0302124
-0.0378418
-0.0375366
-0.0320435
0.0115967
0.0680542
0.11261
0.133057
0.110474
0.0814819
0.0668335
0.0750732
0.112
0.130615
0.122681
0.0973511
0.0534058
-0.0234985
-0.0576782
-0.0942993
-0.0845337
-0.062561
-0.0454712
-0.0552368
-0.027771
-0.00213623
-0.0128174
-0.0463867
-0.0488281
-0.0244141
-0.00640869
-0.0134277
-0.0189209
0.0137329
0.00244141
-0.0509644
-0.0622559
-0.0610352
-0.0595093
-0.0643921
-0.0604248
-0.0311279
0.0595093
0.144958
0.135803
0.0216675
-0.0582886
-0.0662231
-0.0491333
-0.0491333
-0.03479
0.0369263
0.0720215
0.0915527
0.0546265
0.0387573
0.0439453
0.0610352
0.0469971
0.0366211
0.0543213
0.0534058
0.0335693
0.00244141
-0.0537109
-0.0820923
-0.0888062
-0.0872803
-0.0598145
-0.00457764
0.0576782
0.0814819
0.0799561
0.0671387
0.0552368
0.0350952
0.0241089
-0.0106812
-0.0128174
0.00701904
0.0265503
0.0299072
0.0213623
0.00793457
-0.0299072
-0.0762939
-0.078125
-0.0567627
-0.0170898
-0.0112915
0.000915527
0.0271606
0.0848389
0.0924683
0.0354004
0.0271606
0.0564575
0.0854492
0.0811768
0.0537109
0.0241089
0.010376
0.0314331
0.0613403
0.071106
0.06073
0.0521851
0.0112915
-0.0177002
-0.0100708
0
-0.00610352
-0.00610352
-0.00915527
0.0186157
0.0439453
0.055542
0.0973511
0.113525
0.0814819
0.0262451
-0.017395
-0.0369263
0.0109863
0.0558472
0.0564575
0.000305176
-0.0485229
-0.0463867
-0.0588989
-0.0717163
-0.0686646
-0.0558472
-0.0375366
-0.0579834
-0.0460815
0.00610352
0.0238037
0.0396729
0.0888062
0.0750732
0.0473022
0.0344849
0.0317383
0.0247192
0.0146484
0.0326538
0.0192261
-0.010376
0
0.00579834
0.0146484
0.0369263
0.0439453
0.0588989
0.0643921
0.0527954
0.0247192
-0.00396729
0.00274658
0.00854492
0.0180054
0.027771
0.0366211
0.0180054
-0.00671387
0.0195312
0.0326538
0.0222778
-0.0180054
-0.00793457
0
0.0152588
0.0521851
0.0534058
0.0146484
0.0216675
0.0354004
0.0509644
0.0540161
0.0476074
0.0396729
0.0238037
0.0247192
0.00152588
-0.00762939
0.0717163
0.0827026
0.055542
0.0631714
0.0765991
0.0497437
0.00366211
-0.0714111
-0.0946045
-0.0790405
-0.0546265
-0.0112915
0.00701904
-0.032959
-0.0161743
-0.00244141
0.027771
0.0588989
0.0442505
0.038147
0.010376
-0.0256348
-0.0411987
-0.0473022
-0.043335
-0.0424194
-0.0308228
-0.00244141
0.0149536
0.00488281
-0.00976562
0.0170898
0.0274658
0.0283813
0.0421143
0.0326538
0.0149536
0.0088501
0.00366211
-0.00366211
0.0119019
0.0286865
0.06073
0.0601196
0.0344849
0.0164795
0.0180054
0.00701904
-0.0146484
-0.0332642
-0.03479
-0.0564575
-0.0692749
-0.015564
0.0161743
0.0289917
0.00335693
-0.043335
-0.0665283
-0.0271606
0.00579834
0.0216675
0.0799561
0.10437
0.067749
0.0311279
0.0332642
-0.0311279
-0.0579834
-0.0408936
0.00732422
0.0411987
0.062561
0.0735474
0.071106
0.0540161
-0.00457764
-0.057373
-0.0820923
-0.0674438
-0.0408936
-0.0296021
-0.0305176
-0.0253296
-0.0125122
0.010376
0.0180054
0.0186157
0.032959
0.00274658
-0.0247192
-0.0222778
0.0296021
0.0653076
0.0631714
0.0299072
0.0378418
0.0161743
-0.010376
-0.0143433
-0.0131226
0
-0.010376
-0.0259399
-0.0177002
-0.00762939
0
-0.0186157
-0.0631714
-0.0598145
-0.015564
0.027771
0.0418091
0.0402832
0.00488281
-0.010376
-0.00366211
-0.00610352
0.00518799
0.0421143
0.0680542
0.0405884
0.00518799
0.00244141
0.045166
0.0314331
0.0158691
0.0106812
0.00427246
0.00671387
0.0231934
0.0375366
0.0213623
-0.0250244
-0.00976562
0.0198364
0.027771
0.0283813
0.0305176
0.0436401
0.0360107
0.0378418
0.0256348
0.00518799
-0.0338745
-0.0326538
-0.00610352
-0.015564
-0.00305176
0.0622559
0.0521851
0.0393677
0.00274658
-0.0167847
-0.043335
-0.0241089
-0.0112915
-0.0146484
-0.0332642
-0.0500488
-0.0668335
-0.0735474
-0.0192261
0.0274658
0.0360107
0.0250244
0.0244141
0.0234985
0.055542
0.0402832
0.0271606
-0.00244141
-0.0198364
-0.0512695
-0.0576782
-0.0424194
-0.0485229
-0.0570679
-0.0698853
-0.0253296
0.0247192
0.0680542
0.0900269
0.0900269
0.0476074
0.0180054
0.0256348
0.0088501
0.00457764
-0.0210571
-0.0546265
-0.0393677
-0.00640869
0.0189209
0.0186157
-0.00793457
-0.0143433
-0.0125122
0.000610352
0.0393677
0.0250244
-0.00671387
-0.0302124
-0.0265503
0.00854492
0.0576782
0.0576782
0.071106
0.0836182
0.093689
0.0646973
0.00213623
-0.0457764
-0.0848389
-0.0701904
-0.0234985
-0.027771
0.00213623
0.00396729
-0.0152588
-0.0234985
-0.0213623
-0.027771
-0.0228882
0.000610352
0.0012207
0.00183105
0.00610352
0.00213623
0.0100708
0.0195312
0.0143433
0.000610352
-0.0247192
-0.0192261
0.0131226
0.00549316
0.0170898
0.0549316
0.0527954
0.0460815
0.0537109
0.0631714
0.0485229
0.0189209
-0.0106812
-0.0357056
-0.0372314
-0.0408936
-0.0408936
-0.0515747
-0.0344849
-0.00518799
0.0012207
0.00213623
-0.0323486
-0.0695801
-0.0332642
0.00701904
-0.00701904
-0.0289917
-0.0244141
-0.0210571
-0.0335693
-0.0149536
-0.0271606
0.0109863
0.0424194
0.0695801
0.0680542
0.0537109
0.0344849
0.0546265
0.0585938
0.0479126
0.0234985
0.00946045
-0.0213623
-0.0686646
-0.0869751
-0.0524902
-0.0149536
0.0537109
0.0811768
0.0747681
0.0881958
0.055542
0.00396729
-0.00518799
-0.0222778
-0.0320435
-0.0613403
-0.0424194
-0.020752
0.0152588
0.0350952
0.0332642
0.00732422
-0.0228882
-0.0210571
-0.00427246
0.00183105
-0.00488281
-0.00732422
0.020752
0.0448608
0.045166
0.022583
0.00183105
0.00762939
-0.00274658
0.0137329
0.0393677
0.101013
0.0839233
0.0131226
-0.0100708
-0.0204468
-0.00183105
0.000610352
-0.00762939
-0.0177002
-0.0131226
-0.0216675
-0.00610352
-0.00305176
-0.0256348
-0.038147
-0.0405884
-0.0137329
0.00823975
0.0289917
0.0695801
0.0970459
0.0827026
0.0537109
-0.00305176
-0.0585938
-0.0772095
-0.0427246
-0.00427246
0.0109863
0.00793457
-0.0149536
-0.0262451
-0.00518799
0.0552368
0.110779
0.0784302
0.00518799
-0.0305176
-0.0164795
0.00701904
0.0375366
0.0427246
0.0338745
0.0344849
0.0350952
0.0286865
0.00518799
-0.0268555
-0.0411987
-0.0527954
-0.0375366
-0.00335693
0.0204468
0.039978
0.0738525
0.0985718
0.0784302
0.0308228
-0.0567627
-0.0643921
-0.0259399
0.00946045
-0.0180054
-0.0378418
-0.0262451
-0.0241089
-0.0338745
-0.0466919
-0.0366211
-0.00640869
-0.0119019
-0.0375366
-0.0299072
0.0518799
0.0949097
0.0796509
0.0506592
0.0259399
0.0390625
0.0500488
0.0418091
0.0314331
0.0100708
-0.0354004
-0.0839233
-0.134583
-0.0820923
-0.0387573
0.0265503
0.0473022
0.0372314
0.0262451
0.0164795
0.00213623
-0.00640869
-0.0180054
-0.0289917
-0.0186157
-0.0268555
-0.0183105
0.00640869
0.0228882
0.0149536
0.0149536
0.0442505
0.115662
0.0939941
0.0485229
0.00640869
-0.00823975
-0.0234985
-0.0595093
-0.0509644
-0.0418091
0.00213623
0.0350952
0.0302124
0.0402832
0.0134277
-0.00213623
0.00213623
0
-0.00366211
0.022583
0.0137329
0.0161743
0.0247192
0.0213623
0.00793457
-0.00213623
0.00732422
0.0131226
0
-0.00976562
-0.0100708
-0.00457764
0.0305176
0.0747681
0.108032
0.0912476
0.0686646
0.0741577
0.0424194
0.0219727
0.00457764
0.0106812
-0.00152588
-0.00152588
-0.00396729
0.0088501
0.045166
0.0369263
0.00305176
-0.0109863
-0.0317383
-0.0366211
-0.0125122
0.0146484
0.0183105
0.0164795
0.0161743
0.0192261
0.0582886
0.0946045
0.114441
0.0704956
0.0292969
0.0265503
-0.00946045
-0.0366211
-0.0378418
-0.00396729
0.0152588
0.0305176
0.0164795
-0.00366211
-0.0134277
0.0201416
0.045166
0.00579834
-0.017395
-0.0534058
-0.0622559
-0.0308228
0.0012207
0.0149536
0.0112915
0.0369263
0.0915527
0.0784302
0.0656128
0.0744629
0.0460815
-0.0134277
-0.0534058
-0.057373
-0.0708008
-0.0756836
-0.0650024
-0.022583
0.00152588
0.0289917
0.0680542
0.0860596
0.0402832
-0.00732422
-0.0161743
-0.0265503
-0.00762939
0.0167847
0.0521851
0.055542
0.0692749
0.078125
0.0631714
0.0534058
0.0363159
0.0268555
0.0360107
0.0167847
-0.039978
-0.0717163
-0.0915527
-0.0689697
-0.0112915
0.0473022
0.0796509
0.0897217
0.102539
0.0604248
0.0582886
0.0439453
0.0509644
0.0473022
0.0695801
0.0704956
0.0769043
0.0595093
0.0460815
0.050354
0.0378418
0
-0.0210571
-0.0280762
-0.0350952
-0.027771
-0.00305176
-0.0296021
-0.0854492
-0.0637817
-0.0506592
-0.0375366
-0.0387573
-0.0427246
-0.0570679
-0.0588989
0.0106812
0.0436401
0.0250244
0.000305176
-0.00366211
-0.0143433
-0.00335693
-0.0109863
-0.00946045
-0.00823975
0.00457764
0.017395
0.0326538
0.0344849
0.010376
-0.0241089
-0.0164795
0.0189209
0.0326538
0.0238037
0.0411987
0.0228882
0.0137329
0.0204468
0.0500488
0.0469971
0.0216675
0.017395
0.0210571
0.0164795
0.00518799
-0.00335693
-0.0146484
-0.0186157
0.00640869
0.0177002
0.00366211
-0.0167847
-0.0112915
0.0204468
0.0387573
0.00549316
-0.0662231
-0.0228882
0.0482178
0.109558
0.141907
0.118713
0.0836182
0.0335693
0.00213623
-0.0112915
0.00274658
-0.0280762
-0.072937
-0.0860596
-0.0662231
-0.0213623
0.0228882
0.0482178
0.0582886
0.0540161
0.055542
0.0457764
0.0396729
0.0466919
0.0335693
-0.00152588
-0.0158691
-0.0305176
-0.0445557
-0.0732422
-0.0769043
-0.0576782
-0.0341797
-0.0268555
-0.00335693
0.00183105
0.0143433
0.0247192
0.0430298
0.0354004
0.0320435
0.0189209
0.010376
0.00427246
-0.017395
-0.00823975
-0.00640869
-0.0231934
-0.0241089
-0.00701904
-0.00762939
-0.0134277
-0.0109863
-0.0109863
-0.0186157
-0.00305176
0.0485229
0.10376
0.108948
0.0735474
0.0167847
-0.00640869
-0.0186157
0.00701904
0.0411987
0.0485229
0.0469971
0.00488281
-0.0302124
-0.0460815
-0.0500488
-0.0640869
-0.0811768
-0.0588989
-0.00579834
0.0411987
0.039978
0.00823975
0.0186157
-0.017395
-0.0289917
-0.00213623
0.0326538
0.0692749
0.0814819
0.0875854
0.093689
0.0527954
0.00946045
-0.0421143
-0.0598145
-0.0796509
-0.0674438
-0.0476074
-0.0308228
-0.0234985
-0.00549316
0.0247192
0.0311279
0.0363159
0
-0.050354
-0.055542
-0.0280762
-0.0177002
-0.00976562
-0.00213623
-0.0146484
-0.0244141
-0.0088501
0.0393677
0.0778198
0.0765991
0.0531006
0.0119019
-0.0128174
-0.0576782
-0.0765991
-0.0485229
0.00213623
-0.00701904
-0.022583
0.0115967
0.0363159
0.0350952
0.0360107
0.0265503
0.055542
0.0695801
0.0723267
0.0717163
0.0549316
0.0131226
-0.0146484
-0.0320435
-0.043335
-0.032959
-0.0302124
-0.0128174
-0.00274658
-0.000610352
0.00762939
-0.00549316
-0.0427246
-0.0253296
0.0143433
0.0228882
0.00823975
-0.0167847
-0.0259399
-0.0268555
-0.0115967
0.00579834
0.0341797
0.0457764
0.0588989
0.0418091
0.0497437
0.0927734
0.065918
0.0436401
0.0671387
0.0619507
0.0317383
0.000610352
0.00671387
0.0317383
0.0320435
0.0253296
-0.0195312
-0.0769043
-0.0537109
-0.0396729
-0.0231934
0.00701904
-0.00183105
-0.0466919
-0.0497437
-0.0405884
-0.0296021
-0.00640869
0.00640869
0.0106812
-0.00701904
-0.0671387
-0.0582886
0.0369263
0.0802612
0.0738525
0.0765991
0.071106
0.0720215
0.0662231
0.0805664
0.0689697
0.0372314
-0.0128174
-0.0543213
-0.0674438
-0.0512695
-0.0411987
-0.0158691
-0.00854492
-0.0146484
-0.0256348
-0.043335
-0.0421143
0.00457764
0.015564
0.0360107
0.0567627
0.0320435
0.0137329
0.0192261
0.0189209
0.0476074
0.0445557
0.043335
0.0320435
0.00427246
0.00457764
0.00976562
0.00762939
-0.0134277
-0.0354004
0.00549316
0.0479126
0.0646973
0.0653076
0.039978
0.0402832
0.0222778
-0.00488281
-0.0271606
-0.032959
-0.0289917
-0.0271606
-0.0372314
-0.0289917
0.00183105
0.0357056
0.0683594
0.0692749
0.0509644
0.0354004
0.0424194
0.0363159
0.0415039
0.0247192
-0.00854492
-0.0265503
-0.00549316
-0.00854492
0.0643921
0.0650024
0.0534058
0.0341797
0.0393677
0.0253296
-0.0146484
-0.0418091
-0.0387573
-0.0177002
-0.0164795
-0.0418091
-0.0692749
-0.0592041
0.00366211
0.0482178
0.107422
0.090332
0.072937
0.0454712
0.0131226
-0.00396729
-0.012207
-0.0296021
-0.0335693
-0.0234985
0.00610352
0.00946045
-0.00457764
0.00854492
-0.00244141
0.0106812
0.0088501
0.00579834
0.00518799
-0.00213623
-0.00549316
-0.0125122
0.00457764
0.0137329
0.00823975
0.0247192
0.0238037
0.00579834
0
0.0234985
0.045166
0.0411987
0.0143433
-0.00183105
0.0125122
0.0204468
0.0167847
-0.010376
0
-0.00793457
0.00213623
0.0119019
0.0289917
0.032959
0.00976562
-0.00152588
-0.0244141
-0.0149536
-0.00793457
0.0140381
0.0360107
0.0271606
0.0177002
0.0192261
0.00488281
-0.0268555
-0.0524902
-0.0335693
0.000305176
-0.0012207
-0.00152588
0.0161743
0.0222778
0.0262451
0.027771
0.00610352
-0.0283813
-0.0366211
-0.0363159
-0.00671387
0.012207
0.00915527
-0.0106812
-0.0375366
-0.0546265
-0.0469971
-0.0424194
0.0280762
0.0674438
0.0466919
0.00366211
-0.0344849
-0.0802612
-0.0653076
-0.0231934
0.038147
0.0537109
0.0387573
0.0259399
0.0271606
0.0363159
0.0143433
-0.0204468
-0.0521851
-0.085144
-0.0869751
-0.0631714
-0.0418091
-0.0442505
-0.0100708
0.0241089
0.0427246
0.0497437
0.0244141
0.0164795
-0.0149536
-0.0363159
-0.0692749
-0.0888062
-0.043335
0.0256348
0.130005
0.160828
0.0906372
0.0280762
0.00274658
-0.0427246
-0.0497437
-0.0598145
-0.0796509
-0.121155
-0.0622559
-0.00579834
0.0228882
0.0830078
0.0680542
0.0238037
0.00976562
-0.0112915
-0.03479
-0.0228882
0
-0.00762939
0.0183105
0.00244141
0.0128174
-0.0198364
-0.0341797
-0.057373
-0.0460815
-0.0341797
-0.0128174
0.032959
0.0439453
0.0308228
0.0192261
0
0.00244141
0.0283813
-0.0119019
-0.0134277
0.00488281
0.0183105
0.0531006
0.0466919
0.0543213
0.0753784
0.0582886
0.0405884
0.0134277
-0.00854492
-0.0457764
-0.0393677
-0.00549316
0
-0.0265503
-0.0384521
-0.0506592
-0.00762939
0.000305176
0.0210571
0.0134277
-0.00366211
-0.0134277
-0.0201416
-0.015564
-0.00396729
-0.00610352
-0.0125122
-0.0247192
-0.032959
-0.0210571
0.0198364
0.043335
0.0482178
0.0253296
0.067749
0.0524902
0.0344849
0.0253296
0.0250244
0.00213623
-0.00579834
-0.0531006
-0.0930786
-0.0695801
-0.0100708
0.0125122
0.0140381
0.0262451
0.0228882
0.00518799
-0.0405884
-0.0543213
-0.022583
0.0100708
0.017395
0.0405884
0.0369263
0.0198364
0.0158691
0.0137329
0.020752
0.0271606
0
0.0500488
0.0775146
0.0488281
0.00183105
-0.0302124
-0.0521851
-0.0500488
-0.0613403
-0.0567627
-0.039978
-0.0265503
-0.0247192
0.00366211
0.0112915
-0.0146484
-0.0247192
-0.015564
-0.00610352
-0.0164795
-0.0296021
-0.00976562
0
-0.0216675
-0.0439453
-0.0512695
-0.0384521
-0.0274658
-0.0112915
0.0259399
0.057373
0.0854492
0.0534058
0.027771
0.0289917
0.00457764
0.017395
0.0460815
0.0796509
0.0894165
0.0772095
0.0601196
0.0360107
0.00427246
-0.0119019
-0.00305176
-0.0228882
-0.0335693
-0.0466919
-0.0592041
-0.0411987
0.00396729
0.00946045
0.00671387
0.039978
0.067749
0.0717163
0.0588989
0.0448608
0.0546265
0.0598145
0.0448608
0.0170898
0.00854492
-0.010376
-0.0509644
-0.0857544
-0.072937
0.00457764
0.0131226
-0.0256348
-0.0753784
-0.0601196
-0.062561
-0.0198364
0.0192261
0.0314331
0.0424194
0.0515747
0.0378418
0.00946045
0.0137329
0.06073
0.071106
0.0582886
0.0485229
0.0598145
0.0326538
0.00213623
-0.00915527
0.0100708
0.0164795
0
-0.0445557
-0.0524902
-0.0244141
-0.00457764
0.000305176
0.0131226
0.0262451
0.0256348
-0.0158691
-0.0549316
-0.0390625
-0.0228882
-0.0238037
0.00549316
0.0222778
0.0332642
0.0393677
0.0360107
0.00274658
-0.0268555
-0.015564
0.00274658
0.00854492
0.020752
0.00579834
-0.0247192
-0.0473022
-0.0515747
-0.045166
-0.0234985
-0.00366211
-0.00488281
0.00427246
0.00946045
-0.00793457
0.00518799
0.015564
0.015564
0.0164795
0.0125122
0.017395
0.0164795
0.0473022
0.0750732
0.0814819
0.0842285
0.0601196
0.045166
0.0152588
-0.0234985
-0.0515747
-0.0210571
0.0378418
0.0515747
0.0335693
0.0183105
0.00183105
-0.00946045
-0.0405884
-0.0424194
-0.0241089
0.00793457
-0.00762939
0.0149536
0.0454712
0.062561
0.0595093
0.0247192
0.0216675
0
-0.0289917
-0.00854492
0.0128174
0.0582886
0.0863647
0.0814819
0.0857544
0.043335
-0.0100708
-0.0296021
-0.03479
-0.0280762
-0.038147
-0.0271606
-0.0198364
-0.0134277
0.0292969
0.06073
0.0262451
-0.00854492
-0.0546265
-0.0427246
-0.00976562
0.0128174
0.0430298
0.0714111
0.0646973
0.0302124
-0.00396729
-0.0228882
-0.0543213
-0.0793457
-0.0616455
-0.0378418
-0.0268555
-0.0125122
-0.0143433
-0.0244141
0.00671387
0.0515747
0.0991821
0.105591
0.078125
0.0808716
0.0570679
0.0375366
0.000915527
-0.0177002
-0.0372314
-0.0411987
-0.0274658
0
-0.00579834
-0.0305176
-0.0308228
-0.0219727
0.0259399
0.0387573
0.0448608
0.0286865
-0.00457764
-0.0210571
-0.0158691
-0.00518799
-0.012207
-0.0411987
-0.0396729
-0.0149536
0.0106812
0.0186157
0.0286865
0.0457764
0.0585938
0.0726318
0.0161743
-0.0164795
-0.0149536
-0.00305176
0.000305176
0.00640869
0.0314331
0.050354
0.0265503
0.0140381
0.00335693
0.0363159
0.0442505
0.0326538
0.0283813
0.0485229
0.0582886
0.0341797
0.0109863
-0.0265503
-0.0320435
-0.0143433
0.00152588
-0.00488281
-0.000915527
0.0183105
-0.00396729
-0.0119019
-0.00335693
-0.0180054
-0.0375366
0.0253296
0.085144
0.0762939
0.0241089
0.0158691
0.0210571
0.0250244
0.0402832
0.0314331
0.0448608
0.0485229
0.0595093
0.0305176
-0.0228882
-0.0634766
-0.090332
-0.0888062
-0.0704956
-0.057373
-0.0320435
-0.0170898
-0.0250244
-0.0112915
0.0164795
0.00183105
-0.00762939
-0.0366211
-0.0402832
-0.0216675
0.00335693
0.0234985
0.0164795
0.0271606
0.0457764
0.0579834
0.0680542
0.0805664
0.0891113
0.065918
0.0375366
0.00335693
-0.0357056
-0.0683594
-0.0616455
-0.0552368
-0.0360107
-0.0283813
-0.0363159
-0.0436401
-0.0158691
0.0195312
0.0552368
0.0463867
0.039978
0.0524902
0.0454712
0
0.00671387
0.0463867
0.0894165
0.115051
0.114136
0.0973511
0.0875854
0.0485229
-0.00640869
-0.0515747
-0.0668335
-0.0714111
-0.0799561
-0.0793457
-0.0811768
-0.0588989
-0.0430298
-0.0640869
-0.0805664
-0.0567627
-0.0341797
-0.0201416
0.0192261
0.0476074
0.0408936
0.0378418
0.0161743
-0.0192261
-0.0140381
-0.0170898
-0.0140381
0.017395
0.0296021
0.0561523
0.0549316
0.0341797
0.00488281
-0.0210571
0.00335693
0.0201416
0.0189209
-0.0198364
0.00274658
0.0256348
0.0759888
0.0976562
0.085144
0.0244141
-0.0088501
-0.00823975
-0.00762939
-0.0216675
-0.0521851
-0.0692749
-0.0588989
-0.0198364
-0.022583
-0.00640869
-0.00610352
0.0177002
0.0228882
0.0143433
0.00152588
0.00762939
0.0115967
0.0289917
0.0265503
0.0476074
0.0402832
0.0180054
-0.00823975
-0.0180054
-0.00640869
-0.0100708
-0.0238037
-0.0137329
0.0216675
0.0216675
0.0253296
0.0524902
0.0698853
0.0665283
0.0579834
0.0631714
0.0479126
0.0259399
-0.0219727
-0.0427246
0.00549316
0.0302124
0.0192261
0.00305176
-0.00152588
-0.00854492
-0.0201416
-0.0360107
-0.00915527
0.0622559
0.101929
0.116272
0.0793457
0.0402832
-0.0112915
-0.0366211
-0.078125
-0.109863
-0.0839233
-0.0454712
0.00823975
0.0326538
0.0201416
0.00762939
0.0332642
0.032959
0.027771
0.0302124
0.0131226
-0.0088501
-0.00854492
-0.0250244
-0.0100708
-0.0299072
-0.0588989
-0.0405884
0.0408936
0.0704956
0.0546265
0.0506592
0.0469971
0.0643921
0.0537109
0.0344849
0.0222778
0.0146484
0.017395
-0.00183105
-0.0332642
-0.0360107
-0.03479
-0.0576782
-0.0616455
-0.027771
-0.0262451
-0.0109863
0.0112915
0.0299072
0.0473022
0.0289917
-0.00946045
-0.00915527
-0.0454712
-0.0564575
-0.0274658
-0.00823975
-0.0149536
-0.03479
-0.0494385
-0.0546265
-0.0546265
-0.00549316
0.039978
0.0622559
0.0201416
-0.00366211
-0.0186157
-0.0231934
-0.038147
-0.0170898
0.0234985
0.0604248
0.111389
0.145569
0.132141
0.10437
0.0747681
0.0735474
0.0717163
0.038147
-0.015564
-0.0491333
-0.0756836
-0.108948
-0.134277
-0.123291
-0.0891113
-0.0430298
0
-0.0177002
0.00579834
0.0146484
0.0299072
0.0582886
0.0491333
0.0152588
0.00366211
-0.00610352
0
0.0146484
0.0247192
0.0292969
0.0680542
0.0784302
0.0540161
0.0527954
0.0460815
0.0332642
0.0231934
0.0088501
-0.0390625
-0.039978
-0.0338745
-0.0650024
-0.0418091
-0.0143433
-0.0128174
-0.0582886
-0.0787354
-0.0430298
0.0146484
0.00366211
0.039978
0.0668335
0.0726318
0.0839233
0.062561
0.00946045
0.00518799
0.0326538
0.0161743
0.00701904
0.032959
0.0424194
0.0421143
0.0296021
0.00946045
-0.0213623
-0.0366211
-0.032959
-0.0372314
-0.039978
-0.0369263
-0.0177002
-0.0189209
0.00488281
0.0634766
0.0680542
0.045166
0.0234985
-0.00366211
-0.00183105
0.015564
-0.0247192
-0.0244141
0.00823975
0.0427246
0.0567627
0.032959
0.0167847
-0.010376
-0.0500488
-0.0686646
-0.057373
-0.0546265
-0.078125
-0.0656128
-0.0183105
-0.00640869
-0.00427246
0.000915527
0.0259399
0.0213623
0.0253296
0.0125122
0.0158691
0.000915527
-0.0405884
-0.0857544
-0.0997925
-0.0708008
-0.00701904
0.0527954
0.0637817
0.0466919
0.0350952
0.0125122
-0.0204468
-0.0286865
0.0137329
0.0167847
-0.0296021
-0.0509644
-0.0485229
-0.0241089
-0.00274658
0.00396729
0.0109863
0.0204468
0.0210571
-0.00274658
0.00183105
0.000305176
-0.0170898
-0.0012207
-0.0216675
-0.00183105
0.0283813
0.0521851
0.0512695
0.0247192
0
-0.0332642
-0.0439453
-0.0369263
-0.0286865
-0.0247192
-0.0302124
-0.0158691
0.0192261
0.0619507
0.0894165
0.105286
0.072937
0.0012207
-0.0692749
-0.0985718
-0.0897217
-0.057373
-0.0222778
-0.0134277
-0.00732422
0.0314331
0.039978
0.0515747
0.0634766
0.065918
0.0756836
0.0213623
-0.0384521
-0.0802612
-0.101624
-0.0796509
-0.0692749
-0.0390625
-0.0283813
-0.00183105
0.0183105
0.0192261
0.0234985
0.0485229
0.0473022
0.0344849
0.00915527
-0.00457764
-0.0390625
-0.0448608
-0.00793457
-0.0216675
-0.0354004
-0.0283813
-0.0265503
-0.00335693
0.0128174
0.0244141
0.0222778
0.0210571
0.0167847
0.00244141
-0.0378418
-0.0650024
-0.0445557
-0.0354004
-0.0384521
-0.00823975
0.00183105
0.00488281
-0.00335693
0.0158691
0.0396729
0.00518799
-0.0164795
-0.0137329
-0.010376
-0.0357056
-0.0500488
-0.0338745
-0.0445557
-0.0558472
-0.0686646
-0.0549316
-0.0241089
0.0192261
0.027771
0.0213623
-0.0112915
-0.0265503
-0.0271606
-0.00701904
0.0131226
0.0418091
0.0631714
0.0558472
0.0369263
-0.00457764
-0.0408936
-0.0772095
-0.083313
-0.0601196
-0.0213623
0.0100708
0.00854492
-0.0161743
-0.0115967
0.0350952
0.0823975
0.0842285
0.0604248
0.032959
0.0012207
0
0.00915527
0.045166
0.0650024
0.0765991
0.0958252
0.0909424
0.0857544
0.0259399
-0.0415039
-0.0802612
-0.0888062
-0.125122
-0.137634
-0.106506
-0.0564575
-0.0531006
-0.038147
-0.0271606
0.00701904
0.0375366
0.0286865
0.017395
0.0253296
0.0631714
0.0750732
0.0924683
0.144348
0.178223
0.178223
0.13031
0.0787354
0.0500488
-0.00427246
-0.0531006
-0.0476074
-0.062561
-0.0564575
-0.0442505
-0.0405884
-0.0469971
-0.0320435
0.020752
0.0778198
0.127869
0.153809
0.169067
0.164795
0.109558
0.0857544
0.0546265
0.0137329
0.0140381
-0.00549316
-0.0317383
-0.0531006
-0.0506592
-0.0814819
-0.0942993
-0.0796509
-0.117493
-0.0888062
-0.0177002
0.010376
0.0241089
0.0183105
-0.0198364
-0.057373
-0.0350952
0.0497437
0.0717163
0.11322
0.149841
0.13031
0.0778198
0.0131226
-0.0686646
-0.09552
-0.0375366
-0.00183105
0.0360107
0.0390625
0.0259399
-0.00488281
-0.017395
-0.0234985
-0.0308228
-0.0384521
-0.0448608
-0.0125122
-0.0457764
-0.0927734
-0.0991821
-0.0680542
-0.032959
-0.0186157
-0.0244141
0.00244141
0.0180054
0.0579834
0.0582886
0.045166
0.0210571
-0.0115967
-0.03479
-0.0256348
0.0222778
0.0506592
0.0680542
0.0970459
0.144958
0.207825
0.230713
0.16449
0.0668335
-0.00640869
-0.0357056
-0.0476074
-0.0210571
-0.0167847
-0.0601196
-0.0961304
-0.0961304
-0.0814819
-0.0595093
-0.0372314
-0.000915527
0.0177002
-0.0125122
0.0146484
0.0402832
0.0338745
0.050354
0.0622559
0.0219727
-0.0128174
-0.0158691
0.00671387
0.0158691
0.0454712
0.0723267
0.0439453
-0.0012207
-0.0180054
-0.045166
0
0.0357056
0.108337
0.178528
0.183411
0.10437
-0.00518799
-0.0769043
-0.110168
-0.112305
-0.128174
-0.0933838
-0.113831
-0.112
-0.0839233
-0.0506592
-0.0112915
0.0131226
0.00823975
0.0231934
0.0613403
0.0622559
0.0735474
0.0820923
0.0506592
-0.00457764
-0.0564575
-0.0933838
-0.0674438
-0.0198364
0.0390625
0.0753784
0.072937
0.0338745
0.022583
0.017395
-0.0552368
-0.118103
-0.116882
-0.112305
-0.0918579
-0.0518799
-0.0250244
-0.00244141
0
-0.0128174
-0.0259399
-0.0198364
0.050354
0.0964355
0.0976562
0.0708008
0.0469971
0.0265503
-0.00579834
-0.0637817
-0.0991821
-0.0714111
-0.015564
0.0289917
0.0515747
0.0570679
0.0326538
-0.00579834
-0.0341797
-0.0830078
-0.115356
-0.088501
-0.0656128
-0.0494385
-0.0402832
-0.0476074
-0.0354004
-0.0201416
-0.00579834
0
0.00244141
0.00946045
0
-0.00518799
0.00946045
0.0280762
0.03479
0.0436401
0.0741577
0.0942993
0.0714111
0.0585938
0.0466919
-0.00793457
-0.0198364
0.000915527
0.00366211
-0.0344849
-0.0531006
-0.072937
-0.0881958
-0.0927734
-0.0695801
-0.0546265
-0.0396729
-0.0177002
0.00488281
0.0442505
0.105896
0.139771
0.0643921
0.043335
0.0302124
0.0204468
-0.00396729
0.00152588
0.00579834
0.00579834
0.00823975
0.0366211
0.0790405
0.0863647
0.117798
0.109253
0.078125
0.0549316
0.0314331
0.038147
-0.00427246
-0.0631714
-0.0991821
-0.111389
-0.0939941
-0.0411987
-0.00549316
0.0192261
0.0369263
0.0360107
0.0354004
0.0427246
0.0485229
0.0692749
0.0531006
0.0469971
0.0231934
0
-0.0134277
-0.039978
-0.0442505
-0.0436401
0.017395
0.0814819
0.0836182
0.0653076
0.027771
0.00732422
-0.00518799
-0.0244141
-0.0497437
-0.0476074
-0.0106812
0.0259399
0.0366211
0.0402832
-0.00244141
-0.0527954
-0.0613403
-0.0283813
0.0149536
0.0357056
0.0289917
0.0137329
0.0115967
-0.00854492
-0.0119019
-0.00274658
0.0256348
0.0595093
0.0778198
0.0985718
0.110474
0.072937
0.0396729
0.032959
0.0338745
0.0289917
0.0299072
0.000610352
0.00335693
0.0244141
0.0164795
-0.0201416
-0.0686646
-0.0979614
-0.144653
-0.148621
-0.0912476
-0.0759888
-0.0479126
-0.0158691
0.00305176
0.022583
0.055542
0.106812
0.0964355
0.00213623
-0.0656128
-0.0473022
-0.00518799
0.00610352
-0.0204468
-0.0128174
-0.0241089
-0.0216675
-0.00396729
0.0100708
0.0134277
0.0201416
0.0354004
0.0317383
0.0100708
-0.0125122
-0.00183105
0.00823975
0.0192261
0.0393677
0.039978
0.0274658
0.0143433
0.0387573
0.0253296
0.0274658
0.0195312
0.00457764
-0.0088501
-0.00152588
0.0350952
0.0402832
0.0375366
0.0473022
0.0601196
0.0939941
0.0927734
0.072937
0.0289917
-0.00335693
-0.0146484
-0.0296021
-0.03479
-0.020752
0.00274658
0.022583
0.0473022
0.0393677
0.0177002
-0.0244141
-0.0332642
-0.00457764
0.0305176
0.0558472
0.0662231
0.0320435
-0.015564
-0.0238037
-0.0228882
0.00427246
0.0152588
0.00946045
0.0326538
0.0170898
-0.015564
-0.0146484
0.00152588
0.0320435
0.0671387
0.0973511
0.0994873
0.062561
0.0411987
0.03479
0.0320435
0.017395
0
-0.00732422
-0.0369263
-0.0527954
-0.015564
0.0460815
0.0338745
0.0131226
0
0.0192261
0.0418091
0.057373
0.071106
0.0485229
0.00610352
0.00701904
0.017395
0.0134277
0.0296021
0.0488281
0.0524902
0.038147
0.00854492
-0.0198364
-0.00823975
-0.00762939
-0.0588989
-0.0561523
-0.0534058
-0.0448608
-0.00518799
0.0372314
0.0390625
0.0314331
0.00366211
-0.00274658
0.0567627
0.106812
0.104675
0.0723267
0.0534058
0.0292969
0.0125122
0.0149536
0.0341797
0.0247192
0.015564
0.0305176
0.0314331
0.0366211
0.0531006
0.0357056
0.0253296
0.017395
0.0128174
0.0140381
0.0134277
0.0183105
0.0177002
0.0637817
0.0909424
0.102844
0.0976562
0.0448608
0.0112915
0.0146484
0.0402832
0.0271606
0
-0.0152588
-0.0234985
-0.00610352
0
0.00640869
-0.0106812
-0.0198364
-0.0415039
-0.0421143
-0.0253296
-0.00305176
0.00488281
0.00946045
-0.00274658
0.00701904
0.0299072
0.0418091
0.0723267
0.0424194
0.0256348
0.00213623
-0.0146484
-0.0201416
-0.0357056
-0.045166
-0.0662231
-0.0698853
-0.0534058
-0.0271606
0
0.0250244
0.0582886
0.0479126
0.0143433
0.0143433
0.0363159
0.0320435
0.0463867
0.0387573
0.0323486
0.00946045
0.00946045
0.0088501
-0.0128174
0
0.0180054
0.0250244
0.00976562
0.0338745
0.0430298
0.0363159
0.00915527
-0.03479
-0.017395
0.00366211
0.0259399
0.0405884
0.0628662
0.0671387
0.0732422
0.0674438
0.0430298
0.0259399
0.00457764
0.00701904
0.00518799
-0.00366211
-0.00671387
0.0238037
0.0158691
0.00244141
-0.0262451
-0.0418091
-0.0448608
0.00793457
0.0643921
0.115356
0.0973511
0.093689
0.0418091
-0.012207
-0.0411987
-0.0491333
-0.0738525
-0.0830078
-0.0396729
-0.0198364
0.000610352
0.010376
0.0302124
0.0506592
0.0183105
0.00671387
0.00305176
0.0308228
0.0125122
-0.0198364
-0.0491333
-0.0726318
-0.0372314
-0.00488281
0
-0.00701904
0
0.0238037
0.0408936
0.0601196
0.050354
0.0253296
0.0131226
0.0149536
0
-0.0146484
-0.0238037
0.000610352
0.0274658
0.0415039
0.0540161
0.0357056
0.0308228
0.00518799
0.00305176
0.0262451
0.0500488
0.0396729
0.0296021
0.0192261
0.0140381
0.0241089
0.0283813
0.039978
0.0430298
0.050354
0.0460815
0.0180054
-0.0280762
-0.0308228
-0.022583
-0.0302124
0.00366211
0.0259399
0.0653076
0.067749
0.0411987
0.0332642
0.0228882
0
-0.0338745
-0.0143433
0.0241089
0.0631714
0.0817871
0.0704956
0.0457764
0.0317383
0.0088501
-0.0134277
-0.0363159
-0.0695801
-0.0735474
-0.0357056
-0.0115967
-0.0390625
-0.0299072
-0.0106812
-0.00610352
0.017395
0.0192261
0.00732422
0.0354004
0.0418091
0.0402832
0.0259399
-0.00610352
-0.0231934
-0.0271606
-0.0164795
-0.017395
-0.0183105
-0.0088501
0.0115967
0.0115967
0.00396729
-0.00305176
0
0.0231934
0.0430298
0.0872803
0.0961304
0.0704956
0.0338745
0.010376
-0.00396729
-0.0177002
-0.0427246
-0.078125
-0.120239
-0.135803
-0.0726318
-0.00244141
0.0250244
0.020752
0.0146484
-0.00244141
-0.010376
-0.00213623
-0.00640869
-0.00762939
0.0115967
0.0326538
0.0396729
0.0302124
0.0390625
0.0540161
0.0463867
0.0100708
-0.0326538
-0.0338745
-0.020752
0.00152588
0.022583
0.0350952
0.0445557
0.022583
0.00732422
-0.0167847
-0.027771
-0.0119019
0.015564
0.0354004
0.0393677
0.0479126
0.0311279
-0.0100708
-0.0500488
-0.0247192
0.00183105
0.0219727
0.0305176
0.0180054
0.0109863
0.00549316
0.00671387
0.0189209
0.0299072
0.0454712
0.0531006
0.0140381
0.012207
0.0259399
0.0442505
0.0460815
0.038147
0.00579834
0.000915527
-0.012207
-0.0112915
-0.00457764
0.0457764
0.0341797
0.0131226
-0.00244141
-0.0387573
-0.0344849
0.0137329
0.0411987
0.000915527
-0.0219727
-0.0274658
-0.0299072
-0.0119019
0
-0.0177002
-0.0177002
-0.0253296
-0.0582886
-0.027771
0.0350952
0.078125
0.106201
0.110779
0.0891113
0.0485229
0
-0.0534058
-0.071106
-0.0613403
-0.0302124
0.0115967
0.0360107
0.0292969
0.017395
-0.00305176
-0.0112915
0.00762939
0
0.000610352
-0.0109863
-0.00213623
-0.0167847
-0.0268555
-0.0167847
0.0146484
0.0546265
0.0750732
0.0613403
0.0308228
0.0219727
0.0204468
0.00762939
0.0012207
-0.00610352
-0.0183105
-0.0332642
-0.00518799
0.0115967
0.00427246
0.0354004
0.0286865
0.0582886
0.0827026
0.0296021
-0.00610352
-0.0186157
-0.0363159
-0.0393677
-0.0497437
-0.0518799
-0.0436401
-0.0463867
-0.027771
-0.0201416
-0.0494385
-0.0448608
-0.0195312
0.0143433
0.032959
0.00946045
0.0140381
0.0219727
0.0125122
0.0338745
0.0216675
0.0112915
-0.00793457
-0.0454712
-0.0610352
-0.0466919
-0.00640869
0.00488281
-0.00366211
0.00396729
0.0192261
0.0256348
0.0280762
0.0180054
0.0106812
0.0167847
0.00946045
0.00915527
0.00946045
0.0192261
0.0393677
0.0509644
0.0231934
0.00946045
0.00335693
0.0125122
-0.00549316
-0.0430298
-0.0576782
-0.0424194
-0.0119019
0.0100708
0.00518799
-0.0158691
-0.0228882
-0.0238037
-0.0219727
0.000610352
0.00305176
0.0125122
0
0.0366211
0.0827026
0.0918579
0.0671387
0.0418091
0.0405884
0.0534058
0.0531006
0.0308228
0.0115967
-0.027771
-0.0512695
-0.0396729
-0.0125122
-0.00488281
-0.0146484
-0.0167847
-0.0274658
-0.0561523
-0.0708008
-0.0817871
-0.0830078
-0.0674438
-0.0479126
0.015564
0.0424194
0.0521851
0.027771
0.00671387
0.0128174
0.0323486
0.065918
0.0662231
0.0494385
0.0473022
0.0289917
0.0192261
-0.0289917
-0.0778198
-0.085144
-0.0515747
-0.0292969
0.00274658
0.0457764
0.032959
0.00823975
-0.0012207
-0.0259399
-0.0296021
-0.0210571
0.0170898
0.0210571
0.0164795
0.0393677
0.045166
0.0436401
0.0494385
0.0320435
0.0216675
0.0247192
0.027771
0.0253296
0.00701904
-0.00427246
-0.00976562
-0.0415039
-0.0616455
-0.067749
-0.0631714
-0.00976562
0.0308228
0.0604248
0.039978
0.0531006
0.043335
-0.00274658
-0.0439453
-0.0692749
-0.0790405
-0.0524902
-0.0198364
-0.0146484
-0.00396729
-0.0201416
-0.0289917
-0.0161743
0.0100708
0.0149536
0.00671387
0.00579834
0.0283813
0.0466919
0.0344849
0.0222778
0.00335693
-0.00244141
-0.0125122
0.00183105
-0.0100708
-0.0186157
-0.0247192
-0.0128174
-0.0128174
-0.00335693
0.00183105
0
0.015564
0.0213623
0.0183105
0.0128174
0.00946045
0.0265503
0.0354004
0.0219727
0.00427246
-0.0485229
-0.0610352
-0.0378418
-0.00762939
-0.0198364
-0.0204468
-0.0180054
-0.00457764
-0.0100708
-0.0259399
-0.0479126
-0.0317383
-0.0100708
0.0216675
0.0280762
0.0234985
0.0366211
0.0408936
0.0671387
0.0717163
0.0473022
0.0393677
0.0283813
0.0146484
0.0265503
0.0177002
-0.0241089
-0.0341797
-0.0149536
-0.0219727
-0.0537109
-0.0424194
-0.0201416
0.00183105
0.0140381
0.00732422
0.0186157
0.0366211
0.0320435
0.0320435
0.0311279
0.0213623
-0.0198364
-0.0466919
-0.0411987
-0.0152588
-0.0146484
0.00610352
0.0167847
0.027771
0.0106812
0.00366211
0.0198364
0.0421143
0.0335693
0.0305176
0.0424194
0.0454712
0.0228882
0
-0.0167847
-0.0308228
-0.0088501
0.00183105
-0.00213623
0.0192261
0.0134277
-0.0170898
-0.0372314
-0.0439453
-0.0454712
-0.0387573
-0.0280762
-0.0177002
-0.0344849
-0.0286865
-0.00854492
0.0012207
0.0289917
0.00244141
-0.0311279
-0.0564575
-0.0369263
-0.0112915
0.0283813
0.0149536
0.00244141
-0.015564
-0.0158691
-0.0289917
-0.0317383
0.0219727
0.0448608
0.0256348
0.0012207
-0.0216675
0.00335693
0.012207
0.0195312
0.0344849
0.0476074
0.0488281
0.017395
0.0491333
0.0839233
0.0933838
0.105286
0.0637817
0.055542
0.0860596
0.0820923
0.0363159
0.00915527
0.00274658
-0.0100708
-0.00732422
-0.00610352
-0.00335693
-0.0183105
-0.0332642
-0.0317383
-0.0332642
-0.0161743
-0.0112915
-0.0259399
-0.027771
-0.0363159
-0.0479126
-0.0515747
-0.0265503
0.00518799
0.0192261
0.0289917
0.0335693
0.00579834
-0.0189209
-0.0363159
-0.0335693
-0.0131226
-0.0222778
-0.0265503
-0.0390625
-0.0524902
-0.0354004
0.00549316
0.0369263
0.0323486
0.0274658
0.0216675
0.0149536
0.00457764
0.00183105
0
-0.0177002
-0.0201416
-0.0143433
0.00793457
0.0161743
0.027771
0.0314331
0.0350952
0.0457764
0.0360107
0.0390625
0.00579834
-0.00335693
-0.00549316
-0.0289917
-0.0326538
-0.0457764
-0.0463867
-0.010376
0.0244141
0.0393677
0.0341797
0.0311279
0.0341797
0.0256348
0.0219727
0.0198364
0.0158691
0.0219727
0.0192261
0.0140381
0.0128174
0.00396729
-0.0161743
-0.0143433
0.0201416
0.055542
0.0750732
0.0759888
0.0680542
0.0375366
-0.010376
-0.0396729
-0.0604248
-0.0494385
-0.0320435
-0.00610352
0.0289917
0.0643921
0.0674438
0.0375366
0.0204468
-0.00976562
0.00213623
-0.00274658
-0.0131226
-0.0280762
-0.0354004
-0.0158691
-0.0244141
-0.0326538
-0.0234985
-0.0363159
-0.0366211
-0.015564
0.0149536
0.0549316
0.062561
0.067749
0.0735474
0.0701904
0.0540161
0.0378418
0.027771
0.00579834
-0.00457764
0.00946045
0.0213623
0.0216675
0.0106812
-0.00488281
-0.0189209
-0.0167847
-0.00488281
-0.0100708
-0.0134277
-0.0338745
-0.0393677
-0.0430298
-0.010376
-0.00183105
0.00183105
0.020752
0.0305176
0.0354004
0.0286865
0.0271606
0.0289917
0.0192261
0.010376
0.0286865
0.0582886
0.0494385
0.0222778
0.00671387
0.0128174
0.0283813
0.0369263
0.0335693
0.0100708
-0.0296021
-0.0558472
-0.0152588
0.0241089
0.0338745
0.0442505
0.0521851
0.0442505
0.027771
0.0274658
0.0180054
0.0253296
0.0500488
0.0411987
0.0134277
-0.00152588
0.0234985
0.0280762
0.0088501
-0.0396729
-0.067749
-0.0650024
-0.0656128
-0.0622559
-0.017395
0.015564
0.0204468
0.0479126
0.0720215
0.0698853
0.0534058
0.0216675
0.00701904
-0.0143433
-0.0109863
-0.00183105
0
-0.0274658
-0.0668335
-0.0827026
-0.0305176
0
0.015564
0.0256348
0.038147
0.0387573
0.0189209
0.0180054
0.0256348
0.0183105
0.00244141
-0.0189209
-0.0231934
-0.017395
0.0112915
0.0134277
0.000610352
0.00946045
0.00152588
0.00183105
0.00244141
-0.00946045
0
-0.00762939
-0.0146484
-0.00396729
0.00854492
0.0231934
0.0283813
0
0.00610352
0.032959
0.00305176
0.0192261
0.0436401
0.0213623
0.00152588
-0.0164795
-0.039978
-0.0158691
-0.0100708
-0.00335693
0.0137329
0.0485229
0.0427246
0.0552368
0.0680542
0.0604248
0.0265503
-0.00610352
-0.0268555
-0.00579834
0.0170898
0.0479126
0.0558472
0.0436401
0.0149536
-0.00823975
-0.0469971
-0.020752
-0.00732422
0.0238037
0.027771
-0.00335693
0.00946045
0.000915527
0.00305176
0
-0.00915527
-0.0219727
-0.0335693
-0.0289917
-0.0112915
-0.00518799
0.0259399
0.050354
0.0314331
0.00549316
-0.0198364
-0.0265503
0
0.015564
0.0152588
0.00274658
0.00335693
-0.0186157
-0.0106812
-0.0241089
0.00213623
0.0350952
0.0473022
0.0350952
0.0311279
0.0317383
0.0170898
0.0170898
0.00946045
-0.0158691
-0.00762939
0.0170898
0.0149536
0.00183105
0.0241089
0.0912476
0.0958252
0.0671387
0.0564575
0.0317383
0.010376
0.00640869
0.00579834
-0.0216675
-0.0415039
-0.0656128
-0.055542
-0.0460815
-0.0241089
-0.0119019
-0.00793457
-0.00152588
0.020752
0.027771
0.0228882
0.0241089
0.0308228
0.0201416
0.038147
0.0622559
0.090332
0.109863
0.117798
0.0836182
0.0143433
-0.0320435
-0.0216675
-0.00640869
-0.00793457
-0.0158691
-0.0296021
-0.0125122
-0.0128174
-0.00854492
-0.0216675
0.00335693
0.0286865
0.0283813
0.00946045
0.0088501
0
-0.0146484
-0.00915527
0.00305176
-0.0100708
0.00396729
0.0219727
0.0418091
0.0448608
0.0439453
0.0631714
0.0402832
0.017395
0.00213623
0.00427246
0.00823975
0.0204468
-0.0088501
-0.0265503
-0.0222778
-0.00274658
-0.00396729
0.0183105
0.0274658
0.0195312
0.0204468
0.0305176
0.0506592
0.0521851
0.0366211
0.0271606
0.0427246
0.0390625
0.0302124
0.015564
0.0137329
0.0338745
0.0497437
0.0338745
0.00335693
0
0.00946045
0.0088501
0.0250244
0.0320435
0.0546265
0.06073
0.0305176
0.00701904
-0.0088501
-0.0421143
-0.0616455
-0.0344849
-0.0341797
-0.0228882
0.00183105
0.0384521
0.0723267
0.111389
0.116882
0.0827026
0.0698853
0.0540161
0.017395
-0.00305176
-0.0372314
-0.0631714
-0.0701904
-0.0393677
-0.00701904
0.0189209
0.00335693
0.010376
-0.00854492
-0.0186157
-0.039978
-0.0491333
-0.038147
-0.00549316
-0.00152588
-0.0106812
-0.0296021
-0.0372314
-0.0180054
0.0219727
0.0265503
0.00183105
-0.012207
-0.0259399
-0.0265503
-0.00762939
0.012207
0.0213623
0.00488281
0.00213623
-0.0149536
-0.0180054
0.0119019
0.0463867
0.0430298
0.0247192
0.0253296
0.0457764
0.0308228
0.00732422
0.00488281
0.00732422
0.00579834
0.0125122
-0.00396729
-0.0143433
-0.0198364
-0.0344849
-0.0314331
-0.0247192
-0.0112915
-0.00396729
0.0100708
0.0283813
0.0350952
0.0421143
0.0320435
0.00244141
-0.0372314
-0.0418091
-0.0238037
0.0106812
0.0189209
0.0338745
0.0140381
0.000915527
-0.0360107
-0.0390625
-0.0283813
-0.0222778
-0.0308228
-0.0402832
-0.00823975
0.0265503
0.0454712
0.0494385
0.0454712
0.0497437
0.0234985
-0.0088501
-0.0106812
-0.0128174
-0.0189209
-0.00671387
0.0363159
0.00823975
0.00701904
0.000915527
-0.0128174
-0.0241089
-0.0314331
-0.0271606
-0.0244141
-0.0265503
-0.0177002
0.00335693
0.00213623
0.0125122
0.055542
0.06073
0.0521851
0.032959
0.0500488
0.0201416
-0.0134277
-0.0344849
-0.0460815
-0.0320435
-0.0350952
-0.0604248
-0.0463867
-0.0137329
0.00915527
-0.00762939
-0.00762939
0.000305176
0.0158691
0.0201416
0.00366211
-0.0109863
-0.0369263
-0.0320435
0.00518799
0.00701904
0.00823975
0.00762939
0.00335693
-0.00640869
-0.00946045
-0.0219727
-0.0250244
-0.0250244
-0.0283813
-0.0198364
0.0012207
0.0289917
0.0161743
0.00579834
0.0317383
0.0314331
0.0378418
0.0393677
0.0418091
0.0274658
0.0387573
0.0216675
0.0234985
0.050354
0.0424194
0.00213623
-0.012207
0.0228882
0.0485229
0.0543213
0.0280762
0.0143433
0.00579834
-0.0280762
-0.0747681
-0.078125
-0.0869751
-0.0479126
0.00579834
0.0436401
0.0485229
0.0378418
0.0128174
-0.00793457
-0.0204468
-0.032959
-0.039978
-0.0296021
-0.0274658
-0.0357056
-0.0256348
0.00640869
0.039978
0.0286865
0.00823975
-0.0100708
-0.015564
-0.00793457
0.00640869
0.0271606
0.022583
0.0109863
0.0256348
0.0363159
0.0442505
0.0231934
0.00732422
0.0149536
0.0354004
0.0360107
-0.0247192
-0.0469971
-0.0466919
-0.00915527
0
0.0109863
0.0088501
0.0311279
-0.00244141
0.00640869
-0.00640869
-0.0341797
-0.0332642
0
0.0350952
0.03479
0.0515747
0.0524902
0.0479126
0.0512695
0.0582886
0.0692749
0.0680542
0.0372314
0.0100708
-0.00335693
-0.00213623
0.0125122
0.0125122
0.0192261
0.0256348
0.0378418
-0.0219727
-0.0613403
-0.045166
-0.0512695
-0.0680542
-0.0674438
-0.0332642
-0.0323486
-0.0161743
0.00457764
0.0280762
0.0488281
0.0634766
0.0466919
0.0146484
0.0088501
0
-0.0241089
-0.0341797
-0.0396729
-0.0485229
-0.0491333
-0.0418091
-0.0268555
-0.0341797
-0.0393677
-0.0369263
-0.0201416
0.0268555
0.0518799
0.0274658
-0.00396729
-0.00854492
-0.0247192
-0.00549316
0.0170898
0.0280762
0.015564
0.0262451
0.0372314
0.0311279
0.00915527
0.00396729
0.00854492
-0.00915527
-0.0198364
-0.00244141
0.0262451
0.0436401
0.0360107
-0.00305176
-0.0222778
-0.0323486
-0.0366211
-0.038147
-0.0698853
-0.038147
0.0125122
0.0445557
0.0460815
0.0262451
0.00579834
-0.00610352
0.00335693
0.0384521
0.039978
0.0228882
0.0143433
-0.00274658
-0.00976562
-0.0271606
-0.0354004
-0.0234985
0
0.0158691
0.0192261
0.0115967
0.0198364
0.0231934
0.027771
0.0509644
0.0759888
0.0784302
0.0634766
0.027771
-0.00549316
-0.0112915
-0.0146484
-0.0286865
-0.0390625
-0.0088501
0.0289917
0.0308228
0.0228882
0.0189209
0.0314331
0.00152588
-0.0537109
-0.0869751
-0.106201
-0.0842285
-0.0430298
-0.00823975
0.00427246
0.0427246
0.0604248
0.0360107
-0.022583
-0.0308228
-0.0338745
-0.0332642
-0.00946045
0.00579834
0.00457764
0.00183105
-0.00854492
-0.015564
0.0186157
0.0643921
0.0540161
0.0289917
0.0247192
0.0497437
0.0820923
0.0869751
0.0640869
0.0479126
0.0427246
0.0112915
-0.0234985
-0.0256348
-0.0183105
-0.00305176
-0.00396729
-0.00366211
-0.017395
-0.0314331
-0.0585938
-0.0308228
-0.00335693
0.0244141
0.0332642
0.027771
0.0189209
-0.00457764
-0.0167847
-0.015564
-0.00152588
0.0119019
0.0137329
0.0192261
0.0125122
0.00946045
-0.00335693
0.00335693
0.0256348
-0.00915527
-0.0134277
-0.00274658
0
0.0109863
0.0128174
0.00183105
-0.00396729
-0.00701904
-0.022583
-0.0112915
0.00213623
0.0289917
0.0186157
0.00152588
0.0289917
0.0485229
0.0561523
0.00335693
-0.0534058
-0.0686646
-0.0332642
-0.0198364
-0.00274658
-0.0012207
0.0262451
0.0457764
0.0436401
0.0311279
0.00610352
-0.00213623
0.00457764
0.0247192
0.0476074
0.062561
0.0604248
0.0680542
0.0604248
0.0256348
-0.010376
-0.00793457
-0.00488281
-0.0134277
-0.010376
-0.017395
-0.0119019
-0.020752
-0.0439453
-0.0534058
-0.0570679
-0.045166
-0.0198364
0.0360107
0.078125
0.0918579
0.0708008
0.0427246
0.00823975
0.0012207
-0.0271606
-0.0375366
-0.0137329
0.0183105
0.0256348
0.0146484
0.010376
0
-0.0112915
-0.0308228
-0.0436401
-0.0427246
-0.0335693
-0.0140381
-0.00946045
0.00366211
0.0115967
0.00183105
-0.00274658
-0.0125122
-0.0164795
-0.0161743
0.00183105
0.00457764
0.0146484
0.00915527
0.0192261
0.0289917
0.032959
0.0320435
0.0296021
0.0183105
0.000305176
0.0259399
0.0448608
0.0314331
0.00701904
-0.0210571
-0.022583
-0.00946045
-0.0180054
-0.0183105
-0.00335693
0.0338745
0.0552368
0.0692749
0.0592041
0.0402832
0.00488281
-0.00610352
0.015564
0.0210571
0.0189209
0.012207
0
-0.0234985
-0.0482178
-0.0631714
-0.0405884
-0.0143433
0.027771
0.0759888
0.0552368
0.0350952
0.0213623
0.0146484
0.0146484
0.00762939
-0.0109863
-0.032959
-0.0418091
-0.0274658
-0.0234985
-0.0296021
-0.039978
-0.0296021
-0.0372314
-0.0598145
-0.0372314
-0.00640869
0.017395
0.0405884
0.0518799
0.0476074
0.0265503
0
0
-0.00701904
0.00946045
0.043335
0.0384521
0.0012207
-0.00762939
-0.00732422
-0.0366211
-0.0372314
-0.038147
-0.015564
0.0164795
0.00427246
-0.00793457
-0.00762939
0.0234985
0.065918
0.0570679
0.0360107
0.0338745
0.0177002
0.00396729
0.00701904
0.0247192
0.0405884
0.06073
0.0650024
0.0332642
-0.0128174
-0.0408936
-0.0427246
-0.0518799
-0.0314331
-0.00823975
-0.00701904
-0.0137329
-0.0320435
-0.010376
0.0192261
0.0152588
-0.00366211
-0.00579834
0.015564
0.0375366
0.0424194
0.0479126
0.0491333
0.00671387
-0.0387573
-0.0704956
-0.0662231
-0.0469971
-0.0180054
0
-0.0180054
-0.0256348
-0.0259399
-0.0204468
-0.00488281
-0.017395
-0.0305176
-0.0357056
-0.00244141
0.0234985
0.0326538
0.0119019
-0.00396729
-0.00732422
-0.0109863
0.00213623
0.00518799
0.0506592
0.0790405
0.0735474
0.0473022
0.0491333
0.0387573
0.0198364
0
-0.0305176
-0.0460815
-0.0442505
-0.0390625
-0.0357056
-0.0402832
-0.0549316
-0.0521851
-0.0158691
0.0119019
0.0384521
0.0344849
0.0692749
0.112915
0.104675
0.0570679
0.0289917
0.000610352
-0.0152588
-0.0256348
-0.0341797
-0.0299072
-0.0149536
-0.0134277
0.0112915
0.0012207
0.00366211
0.0106812
0.000915527
0.0106812
0.0115967
0.00488281
-0.0177002
-0.0228882
-0.0289917
-0.0283813
-0.0341797
-0.0146484
0.00701904
0.00427246
0.0198364
0.00946045
-0.00579834
0.00518799
0.027771
0.0418091
0.0662231
0.0668335
0.0564575
0.0354004
0.0259399
0.0265503
0.00579834
0
0.00396729
0.00640869
0.03479
0.0186157
-0.00579834
-0.0421143
-0.0680542
-0.0726318
-0.0512695
-0.0238037
-0.0323486
-0.0125122
0.00152588
0.0292969
0.0177002
0.0131226
-0.0161743
0
0.0198364
0.0549316
0.0585938
0.0332642
0.0146484
0.00213623
-0.00366211
-0.00152588
0.0134277
0.0518799
0.0442505
0.0289917
-0.0143433
-0.0262451
-0.0164795
-0.00396729
0.000305176
-0.0012207
0
-0.00854492
0.00854492
-0.00457764
-0.0228882
-0.0369263
-0.0134277
0.0131226
0.0216675
0.00610352
0.00854492
0.0408936
0.0408936
0.0186157
0.00823975
0.0189209
0.00518799
-0.015564
-0.0137329
-0.00305176
0.00213623
0.0308228
0.055542
0.0845337
0.102234
0.0836182
0.0546265
0.0424194
0.0253296
-0.0119019
-0.0100708
0.00244141
0.00854492
0.0195312
0.0369263
0.0518799
0.039978
0.00701904
-0.0219727
-0.0622559
-0.0683594
-0.0552368
-0.00396729
0.0350952
0.0411987
0.0283813
0.0405884
0.0427246
0.0357056
0.0360107
0.0192261
-0.0112915
-0.0106812
0.0192261
0.0387573
0.0201416
-0.0216675
-0.0149536
-0.0241089
-0.0405884
-0.0747681
-0.085144
-0.0759888
-0.0531006
-0.039978
-0.0296021
-0.0198364
0.0106812
0.0286865
0.00732422
-0.00579834
-0.0112915
-0.0112915
-0.00396729
0.0164795
0.017395
0.0231934
0.0283813
0.0228882
0
-0.0463867
-0.0869751
-0.0588989
-0.0271606
0.00213623
0.0201416
0.0335693
0.0256348
0.0192261
0.0234985
0.00213623
-0.00488281
-0.0140381
0.0109863
0.0192261
0.0125122
0.00457764
0.00335693
0.0314331
0.0561523
0.0680542
0.090332
0.0759888
0.0311279
-0.0192261
-0.0198364
0.0143433
-0.00640869
-0.00518799
0.00854492
0.0198364
0.0149536
0.00701904
0.020752
0.0375366
0.0494385
0.0216675
0.00732422
0.00854492
-0.0137329
-0.0100708
0.00274658
0.0012207
0.0195312
0.0189209
0.0170898
0.0161743
0.0204468
0.03479
0.00488281
-0.0186157
-0.0143433
0.0158691
0.0112915
-0.00579834
0.00946045
0.0256348
0.0152588
0.00518799
-0.000610352
-0.0231934
-0.0192261
0.0137329
0.0100708
0.00488281
-0.00305176
0.00579834
0.0302124
0.0439453
0.0247192
0.00396729
-0.0170898
-0.0296021
0
0.00915527
0.00274658
-0.0265503
-0.0140381
-0.00488281
-0.017395
-0.0274658
0.0088501
0.015564
0.0357056
0.0192261
0.0231934
0.0488281
0.067749
0.0787354
0.0845337
0.0704956
0.039978
0.032959
-0.0012207
-0.0369263
-0.0210571
0.0204468
0.0134277
-0.00915527
-0.00274658
0.0170898
0.0192261
-0.0241089
-0.055542
-0.0634766
-0.0509644
-0.0234985
-0.0479126
-0.0405884
-0.00640869
0.0222778
0.0405884
0.0393677
0.0256348
0.00701904
0.0119019
0.0219727
0.0183105
0.0360107
0.0500488
0.0338745
0.00579834
-0.0262451
-0.0378418
-0.0537109
-0.03479
-0.0100708
0.0216675
0.0320435
0.0579834
0.0512695
0.0384521
0.0326538
-0.00213623
-0.0320435
-0.0509644
-0.0469971
-0.0360107
-0.0231934
-0.0167847
-0.0158691
-0.00579834
0.00915527
0.0115967
0.0228882
0.0332642
0.0314331
0.0308228
0.0326538
0.0332642
0.020752
0.0180054
0.0274658
0.0302124
0.0491333
0.0567627
0.0640869
0.0561523
0.050354
0.0366211
0.0125122
-0.0137329
-0.00579834
-0.00152588
-0.00457764
0.0088501
0.00732422
0.0180054
0.0460815
0.0491333
0.0457764
0.0637817
0.0631714
0.0479126
0.0296021
0.0289917
0.0100708
0.0305176
0.0140381
0.0088501
0.012207
0.00610352
-0.00274658
0.00946045
-0.00305176
-0.0457764
-0.0744629
-0.0906372
-0.0540161
-0.0619507
-0.0692749
-0.0436401
-0.0363159
-0.0161743
0.0286865
0.0491333
0.039978
0.0338745
0.0640869
0.0848389
0.0961304
0.118103
0.114136
0.0588989
0.0131226
-0.0137329
-0.0308228
-0.0534058
-0.0643921
-0.045166
-0.038147
-0.0241089
-0.0143433
-0.0152588
-0.0149536
-0.0170898
0
0.015564
0.0436401
0.0442505
0.0128174
0.00946045
0.0106812
-0.00152588
-0.00427246
-0.0161743
-0.0231934
-0.0250244
0.000915527
0.0186157
0.0308228
0.0524902
0.0900269
0.0872803
0.0488281
0.0213623
0.0250244
0.0268555
0.020752
0.000915527
-0.0421143
-0.0576782
-0.0393677
-0.00549316
-0.0100708
-0.0311279
-0.0430298
-0.0302124
-0.0100708
0.0134277
0.00946045
-0.00762939
-0.0231934
-0.0457764
0.0204468
0.0506592
0.0823975
0.0802612
0.0546265
-0.00335693
-0.0244141
-0.0128174
0.0119019
-0.00579834
0.0012207
0.0387573
0.0442505
0.0418091
0.0192261
-0.00732422
-0.0201416
-0.0323486
-0.0244141
0.0137329
0.0512695
0.0637817
0.0753784
0.039978
-0.0140381
-0.0427246
-0.0454712
-0.0344849
-0.050354
-0.0448608
-0.0256348
-0.0296021
-0.0292969
-0.0231934
0.0088501
0.0363159
0.0494385
0.0497437
0.0476074
0.0540161
0.0384521
0.0222778
0.0283813
0.0323486
0.0222778
0.0167847
0.0268555
0.0241089
0.00213623
-0.00671387
-0.0238037
-0.0372314
-0.0402832
-0.0170898
0.0201416
0.0231934
0.0387573
0.0579834
0.0802612
0.0637817
0.0369263
-0.0158691
-0.038147
-0.027771
-0.0100708
0.0219727
0.0378418
0.0341797
0.0137329
0.00610352
-0.022583
-0.0231934
-0.00701904
0.0427246
0.0485229
0.0241089
0.00457764
0.00335693
-0.0253296
-0.057373
-0.0637817
-0.0302124
0.00579834
0.0457764
0.0457764
0.0106812
-0.00671387
-0.0253296
-0.0317383
-0.0326538
-0.0088501
-0.00396729
0.00946045
-0.00152588
-0.0289917
-0.0378418
-0.017395
0.00946045
0.0265503
0.027771
0.0234985
0.0189209
0.0088501
0.0106812
0.015564
0.0115967
0.0250244
0.0595093
0.0546265
0.022583
-0.0125122
-0.0292969
-0.0476074
-0.0714111
-0.0628662
-0.0662231
-0.0354004
-0.022583
-0.0125122
0
-0.0115967
-0.0012207
0.0012207
0.00366211
0.00946045
-0.0088501
-0.0115967
0.012207
0.0286865
0.0320435
0.0201416
0.0143433
0.0158691
0.0189209
0.0253296
0.045166
0.0509644
0.0857544
0.083313
0.0454712
0.0256348
0.00946045
-0.0198364
-0.0274658
-0.0167847
-0.0143433
-0.00854492
-0.0183105
-0.0183105
-0.00457764
0.0161743
0.0296021
0.0311279
0.0247192
0.022583
-0.00305176
-0.0482178
-0.0640869
-0.0299072
0.00305176
0.0283813
0.0253296
0.0247192
0.0106812
-0.00671387
0
0.00274658
0.0140381
0.0299072
0.0521851
0.0549316
0.0637817
0.0772095
0.0341797
0.00762939
-0.00244141
0.00854492
0.00152588
0.00152588
-0.0396729
-0.0317383
-0.0466919
-0.038147
-0.0210571
-0.00915527
0.00579834
0.038147
0.0497437
0.0494385
0.0442505
0.039978
0.0366211
0.0360107
0.010376
-0.0106812
-0.0088501
-0.00366211
-0.0177002
0.00793457
0.0296021
0.0350952
0.0360107
0.0366211
0.039978
0.0369263
0.0344849
0.0125122
-0.00732422
-0.0201416
-0.0164795
-0.0238037
-0.0546265
-0.0494385
-0.0231934
0.0231934
0.0369263
0.0350952
0.0354004
0.0390625
0.0531006
0.027771
0.0183105
-0.00701904
-0.012207
-0.0308228
-0.0424194
-0.0378418
-0.0198364
-0.00640869
0.000915527
-0.00732422
-0.0112915
0.00610352
0.0320435
0.0765991
0.0854492
0.0527954
0.0140381
-0.00183105
0.0228882
0.0234985
0.0158691
-0.012207
-0.0247192
-0.0408936
-0.00762939
-0.00152588
-0.0222778
-0.0308228
-0.0143433
-0.0158691
-0.00640869
-0.0259399
-0.0128174
-0.00732422
-0.00396729
-0.00183105
0.00488281
0.0012207
0.0167847
0.0186157
0.00671387
-0.00823975
-0.0115967
-0.0119019
-0.00274658
0.0299072
0.0662231
0.0674438
0.0302124
0.00488281
0.0012207
0.00213623
0.0161743
0.0210571
0.0289917
0.0424194
0.0509644
0.0424194
0.0158691
-0.0213623
-0.0527954
-0.0460815
-0.0198364
-0.00671387
0.00396729
0.00793457
0.0418091
0.0790405
0.107422
0.088501
0.0820923
0.0521851
0.0308228
0.0244141
0.00396729
-0.0427246
-0.0772095
-0.0784302
-0.0479126
-0.0109863
-0.00335693
0.00915527
0.0149536
0.0326538
0.0546265
0.0628662
0.057373
0.0289917
-0.00305176
-0.0100708
0.00640869
0.0210571
0.0454712
0.0552368
0.0442505
0.0274658
0.0152588
0.0106812
0.0149536
0.0180054
0.0222778
0.010376
-0.00274658
0.00396729
0.00213623
-0.00762939
-0.00396729
0.000610352
0.0140381
0.00457764
0
0.0289917
0.0387573
0.0308228
0.00762939
0.00762939
0.00488281
0.00701904
-0.00457764
-0.0161743
0.00518799
0.00183105
0.0231934
0.0436401
0.0579834
0.0579834
0.0592041
0.0265503
-0.0137329
-0.0357056
-0.0680542
-0.0735474
-0.0436401
0.0119019
0.0344849
0.00701904
-0.0125122
-0.020752
0.00762939
0.0198364
0.0204468
0
-0.0170898
-0.0280762
-0.020752
-0.00305176
0.00427246
0.0149536
0.0341797
0.0762939
0.0790405
0.0479126
0.0299072
0.0180054
0.0106812
0.0140381
0.0125122
0.00671387
0.00335693
0.00946045
0.00640869
0.00183105
0.00946045
0.0106812
-0.00305176
-0.0112915
-0.0137329
0.00915527
0.0250244
0.0314331
0.0537109
0.0463867
0.0219727
-0.00579834
-0.0253296
-0.0247192
0.00823975
0.0305176
0.0192261
0.0192261
-0.00915527
-0.0283813
-0.015564
-0.0143433
0.00366211
0.000610352
-0.00244141
0.0192261
0.0488281
0.0564575
0.0424194
0.0534058
0.0375366
0.0338745
0.0360107
0.0390625
0.00427246
0.0283813
0.0415039
0.0311279
0.017395
0.0186157
0.0234985
0.0259399
0.0289917
0.0442505
0.0540161
0.0415039
0.0289917
0.012207
-0.0128174
-0.0204468
-0.0515747
-0.0485229
-0.0183105
-0.0204468
-0.00610352
0.00793457
0.0259399
0.0354004
0.0415039
0.0448608
0.0485229
0.0363159
0.0109863
0.0125122
0.020752
0.0115967
-0.0164795
-0.0296021
0.00854492
0.0460815
0.0500488
0.0210571
0.032959
0.0485229
0.0442505
0.0579834
0.0601196
0.0521851
0.0335693
-0.00274658
-0.012207
0.000915527
0.0289917
0.0338745
0.0125122
-0.00152588
0.0274658
0.0436401
0.0411987
0.0231934
0.00732422
-0.0140381
-0.0402832
-0.020752
-0.00854492
-0.0012207
-0.00762939
0.00915527
0.00823975
0.00335693
0.00488281
0.0234985
0.0366211
0.0146484
-0.0109863
-0.00762939
0.0216675
0.038147
0.0466919
0.0466919
0.0344849
0.045166
0.0247192
0.0183105
0.00762939
0.00244141
-0.0149536
-0.0314331
-0.020752
-0.0198364
-0.0320435
-0.0292969
0.00701904
0.0598145
0.0616455
0.0454712
0.0735474
0.0939941
0.0717163
0.0469971
0.0305176
0.0146484
-0.00213623
-0.0268555
-0.0418091
-0.0616455
-0.0415039
-0.0369263
-0.0143433
-0.015564
-0.0198364
-0.00518799
-0.00488281
0.00701904
0.017395
0.0241089
0.0271606
0.020752
0.0216675
0.0152588
0.00701904
0.00305176
0.0198364
0.0457764
0.0784302
0.0924683
0.0863647
0.062561
0.0183105
-0.0167847
-0.0350952
-0.0320435
-0.0302124
-0.0146484
0.00457764
0.000305176
-0.0106812
-0.0183105
-0.0378418
-0.020752
-0.00823975
0.0167847
0.0259399
0.0213623
0.0289917
0.0271606
0.000610352
-0.0149536
-0.0442505
0.00305176
0.0393677
0.0509644
0.0430298
0.0457764
0.0265503
0.0244141
0.012207
0.020752
0.0262451
0.0234985
0.0158691
0
-0.0161743
-0.0100708
0.0164795
0.0537109
0.101013
0.120239
0.111084
0.0875854
0.0427246
-0.0222778
-0.0512695
-0.0668335
-0.0515747
-0.022583
-0.00762939
-0.00854492
-0.0137329
0.0119019
0.0213623
0.00946045
0.0244141
0.0366211
0.0393677
0.0180054
0.00427246
-0.0241089
-0.032959
0.00213623
0.0112915
0.0210571
0.0369263
0.0524902
0.0650024
0.0598145
0.0460815
0.0216675
-0.0222778
-0.039978
-0.010376
0.0219727
0.0512695
0.0686646
0.0524902
0.020752
0.0289917
0.0112915
0.0137329
0.0314331
0.0256348
0.0268555
0.00793457
-0.0421143
-0.0387573
-0.0350952
-0.0146484
0.0350952
0.0119019
-0.0134277
-0.00305176
0.0152588
0.0216675
0.0454712
0.0415039
0.0183105
0.00488281
-0.00152588
-0.0161743
-0.0128174
0.0149536
0.0265503
0.0192261
0.000610352
0
0.00915527
0.0250244
0.0448608
0.0683594
0.0405884
0.0473022
0.0540161
0.0390625
0.00793457
-0.012207
-0.0143433
-0.00640869
0.0189209
0.0308228
0.0344849
0.0210571
0.0204468
0.0405884
0.0442505
0.0228882
0.00823975
-0.0253296
-0.0509644
-0.0369263
0.0012207
0.0317383
0.0366211
0.0283813
0.032959
0.0143433
-0.0164795
-0.0152588
-0.00335693
-0.00976562
0.0271606
0.0299072
0.0436401
0.0552368
0.0457764
0.0265503
0.00823975
-0.00976562
-0.0210571
-0.0296021
-0.032959
-0.0418091
-0.0265503
-0.00854492
-0.0088501
-0.00305176
-0.00396729
-0.0274658
-0.0341797
-0.0137329
-0.0134277
-0.00305176
0.0411987
0.0473022
0.0646973
0.0582886
0.017395
0.0222778
0.0326538
0.0460815
0.00427246
0.00762939
0.0265503
0.0527954
0.0393677
0.0256348
0.022583
0.0265503
0.0326538
0.0204468
0.0280762
0.0332642
0.0192261
0
-0.00671387
-0.0137329
-0.0012207
0.0158691
0.0253296
0.0222778
-0.00152588
-0.00793457
0.00823975
-0.00518799
0
0.00610352
0.0183105
0.00732422
0.00610352
0.00671387
0.00946045
0.00762939
0.0137329
0.0106812
0.0192261
0.00793457
-0.0161743
-0.0131226
0.0149536
0.0460815
0.0634766
0.0900269
0.0808716
0.0350952
-0.00396729
-0.0405884
-0.0683594
-0.0732422
-0.0549316
-0.0256348
0.0161743
0.0311279
0.0305176
0.0201416
0.0137329
-0.0100708
-0.00976562
-0.00610352
-0.00640869
-0.0100708
0.00518799
0.0369263
0.0540161
0.0457764
0.0424194
0.0360107
0.0119019
0.00305176
-0.00640869
-0.017395
0.00518799
0.0259399
0.0335693
0.0320435
0.0311279
0.0427246
0.0585938
0.0256348
0.00854492
-0.0234985
-0.0231934
-0.00793457
0.00823975
0.0152588
0.0192261
0.0088501
0.0012207
0.0289917
0.032959
0.0360107
0.0289917
0.00793457
-0.00854492
-0.0259399
-0.0253296
-0.022583
-0.017395
-0.0161743
-0.0289917
-0.0280762
-0.00488281
0.00366211
0.0274658
0.0134277
-0.0149536
-0.0387573
-0.057373
-0.0485229
-0.0274658
-0.0164795
0.0128174
0.0238037
0.00701904
-0.0137329
-0.0369263
-0.0579834
-0.0811768
-0.0967407
-0.0436401
0.0143433
0.00518799
-0.0222778
-0.00915527
-0.020752
-0.0296021
-0.0289917
-0.0198364
-0.0161743
0
0.0286865
0.0271606
0.0140381
0.0222778
-0.0119019
-0.0210571
0.00823975
-0.0161743
-0.043335
-0.0601196
-0.0582886
-0.0744629
-0.0521851
-0.0134277
0.00305176
-0.00152588
-0.00213623
0.0189209
0.0469971
0.0543213
0.0466919
0.0192261
-0.015564
-0.0311279
-0.0421143
-0.03479
-0.0219727
-0.0164795
-0.00701904
-0.0012207
-0.0125122
-0.0363159
-0.0534058
-0.0494385
-0.0576782
-0.071106
-0.0714111
-0.0616455
-0.0308228
-0.00396729
0.0247192
0.0363159
0.0192261
0.0161743
0.0289917
0.0265503
0.0332642
0.0411987
0.0338745
-0.00427246
-0.0259399
-0.0268555
-0.0183105
-0.0234985
-0.0204468
-0.0167847
-0.0088501
-0.0189209
-0.0234985
-0.0234985
-0.0231934
-0.0256348
-0.0323486
-0.0186157
-0.0158691
0.00793457
0.0259399
0.0344849
0.0296021
0.0338745
0.0192261
0.000915527
0.0213623
0.0332642
0.00488281
-0.0274658
-0.0582886
-0.0686646
-0.055542
-0.0500488
-0.0491333
-0.0497437
-0.0601196
-0.0564575
-0.0415039
-0.0192261
0.000610352
0
-0.00366211
0.00305176
0.00701904
-0.00793457
-0.012207
-0.00549316
-0.00946045
0.012207
0.0439453
0.0448608
0.0341797
0.0457764
0.0289917
-0.0259399
-0.067749
-0.0839233
-0.0964355
-0.0820923
-0.0418091
-0.0112915
-0.0222778
-0.00244141
0.0134277
-0.00823975
-0.0344849
-0.0457764
-0.0466919
-0.0296021
-0.0201416
-0.0372314
-0.0482178
-0.0442505
-0.0460815
-0.0408936
-0.00671387
0.0213623
0.0186157
0.0158691
0.00701904
-0.0189209
-0.0338745
-0.0366211
-0.0146484
-0.017395
-0.00915527
0.000915527
0.0140381
0.020752
0.0115967
0.0283813
0.0256348
0.0234985
0.0180054
0.0201416
0.0137329
0.000610352
0.000915527
0.0350952
0.0408936
0.00671387
-0.0238037
0
0.0335693
0.0631714
0.0497437
0.0140381
-0.0216675
-0.0637817
-0.0769043
-0.0778198
-0.0552368
-0.0421143
-0.0189209
0.0289917
0.0598145
0.0476074
0.020752
0.012207
0.0088501
-0.00518799
-0.0570679
-0.0558472
-0.0393677
-0.0372314
-0.0308228
0
0.0146484
0.0219727
0.0161743
-0.00762939
-0.0405884
-0.0637817
-0.0613403
-0.0393677
-0.043335
-0.0326538
-0.0247192
-0.012207
0
0.0238037
0.0405884
0.022583
0.0256348
0.0332642
0.0238037
0.0088501
-0.0152588
-0.027771
-0.0210571
-0.00518799
0.0204468
0.0216675
0.00946045
0.00610352
-0.00457764
-0.0170898
-0.00427246
0.03479
0.0646973
0.0506592
0.0564575
0.0592041
0.0598145
0.0265503
-0.015564
-0.0457764
-0.0344849
-0.0134277
0.015564
0.0311279
0.0631714
0.0570679
0.032959
0.00640869
-0.00335693
-0.00701904
-0.0323486
-0.0588989
-0.0686646
-0.0332642
-0.0534058
-0.0491333
-0.0238037
0.0183105
0.0183105
0.0189209
0.0402832
0.0509644
0.0390625
0.0308228
0.0460815
0.0308228
-0.0137329
-0.0653076
-0.0842285
-0.0643921
-0.0280762
-0.0326538
-0.0280762
-0.0198364
-0.00915527
0.0219727
0.0134277
-0.0161743
0.00457764
0.0204468
0.0271606
0.0164795
-0.0158691
-0.0527954
-0.062561
-0.0402832
-0.0195312
-0.00793457
-0.0119019
-0.0177002
-0.0286865
-0.0497437
-0.0506592
-0.0253296
0.00366211
0.00701904
0.027771
0.0473022
0.039978
0.038147
0.045166
0.0274658
0.032959
0.0509644
0.0476074
0.0308228
0.038147
0.0265503
0.0125122
0.00732422
-0.00823975
0.000610352
-0.0112915
-0.0354004
-0.0152588
0.0372314
0.0823975
0.0827026
0.0650024
0.0308228
-0.0189209
-0.0314331
-0.0387573
-0.0244141
-0.0183105
-0.0204468
-0.017395
-0.0128174
0.015564
0.0253296
0.017395
0.0125122
-0.0115967
-0.015564
-0.00427246
0.0183105
0.0531006
0.0564575
0.0582886
0.0708008
0.0216675
-0.0140381
-0.00671387
0.00335693
0.00701904
-0.00579834
-0.00671387
0.00335693
0.0256348
0.0408936
0.0500488
0.055542
0.0372314
0.0344849
-0.00335693
-0.0231934
-0.03479
-0.0439453
-0.0662231
-0.0967407
-0.100403
-0.085144
-0.0576782
-0.0149536
-0.0100708
-0.0234985
-0.0247192
-0.0183105
0.000305176
-0.0119019
0.00244141
-0.0131226
-0.022583
-0.0228882
-0.0149536
0
0.0241089
0.0253296
0.0164795
0.00671387
0.000915527
-0.00518799
-0.0299072
-0.0198364
-0.0198364
-0.0250244
-0.0427246
-0.0372314
0
0.00762939
-0.010376
-0.017395
0.015564
0.0354004
0.0274658
0.038147
0.0289917
0.00640869
0.00823975
0.00579834
0.0167847
0.00915527
0.00610352
0
-0.00823975
0
0.000915527
0.0128174
0.0296021
0.0546265
0.0442505
0.022583
0.0158691
0.00213623
-0.00427246
-0.0299072
-0.0177002
-0.00671387
0.0418091
0.0790405
0.0863647
0.0491333
0.0494385
0.0234985
-0.0350952
-0.0927734
-0.0817871
-0.0320435
-0.00396729
-0.0292969
-0.0436401
-0.0421143
-0.0378418
-0.0524902
-0.0726318
-0.0228882
-0.00366211
0.0115967
0.0292969
0.0344849
0.0219727
0.0332642
0.0460815
0.0540161
0.0534058
0.0405884
0.00732422
0.0192261
0.0228882
0.038147
0.0543213
0.0131226
0
0
-0.017395
-0.0415039
-0.0421143
-0.00427246
0.0271606
0.0436401
0.0119019
-0.00518799
-0.0241089
-0.0305176
-0.022583
-0.0234985
-0.0424194
-0.0457764
-0.020752
-0.00366211
0.0259399
0.038147
0.0424194
0.0338745
0.0164795
0.017395
0.0158691
-0.00610352
0
0.00213623
0.0192261
0.0286865
0.0222778
0.0198364
0.0302124
0.03479
0.0308228
0.0265503
0.0317383
0.0479126
0.0558472
0.0524902
0.0549316
0.0408936
0.0308228
0.000610352
-0.0366211
-0.0408936
-0.0161743
0.00946045
-0.00701904
-0.0274658
-0.032959
-0.0445557
0.0112915
0.0164795
0.0137329
0.00701904
0.0115967
0.0204468
0.0408936
0.062561
0.0457764
0.0134277
0.0180054
0.0341797
0.0524902
0.0100708
-0.00305176
-0.0262451
-0.020752
-0.00640869
0.00579834
0.00335693
-0.0088501
-0.0195312
-0.0274658
-0.0262451
-0.0137329
-0.0137329
-0.017395
0.0088501
0.0177002
0.017395
0.0088501
0.0161743
0.0265503
0.00579834
-0.0152588
-0.0354004
0.000915527
0.000915527
-0.0189209
-0.0234985
-0.00701904
0.043335
0.0491333
0.0363159
0.0265503
0.0280762
0.0338745
0.0183105
0.00427246
-0.0189209
-0.0088501
-0.0256348
-0.022583
-0.0198364
0.00396729
-0.00732422
0.0180054
0.0500488
0.0164795
-0.0109863
-0.0158691
0.0115967
0.0732422
0.0717163
0.0527954
0.0259399
0
-0.00823975
-0.00549316
0.0265503
0.0109863
0.0161743
0.00213623
-0.0131226
-0.0341797
-0.0354004
-0.0540161
-0.0686646
-0.0427246
-0.0372314
-0.0158691
-0.00701904
-0.0262451
-0.0213623
0.000305176
0.0216675
0.0238037
0.0012207
-0.00427246
-0.00915527
0.00183105
-0.00152588
-0.0268555
-0.0344849
-0.0341797
-0.0317383
-0.0112915
0.0195312
0.0314331
0.0161743
-0.00610352
-0.0552368
-0.0637817
-0.0515747
-0.0192261
0.00457764
0.00946045
0.0149536
0.0149536
0.0262451
0.0283813
0.0445557
0.0698853
0.0570679
-0.0183105
-0.0662231
-0.0796509
-0.0653076
-0.0289917
0.0213623
0.0134277
0.0189209
0.0250244
0.0344849
0.0317383
0.0360107
0.03479
0.03479
0.0183105
0.0149536
-0.00457764
0.0131226
0.0128174
0.0140381
0.0125122
0.0268555
0.0360107
0.0546265
0.0668335
0.108337
0.114136
0.0839233
0.0506592
0.0112915
-0.00610352
-0.0515747
-0.0836182
-0.057373
-0.0213623
0.00427246
0.000305176
-0.00274658
-0.0210571
0.0012207
-0.0244141
-0.0369263
-0.0531006
-0.0784302
-0.0820923
-0.0622559
-0.0531006
-0.0228882
-0.0149536
-0.0119019
0
-0.00396729
0.00335693
0.00396729
-0.00549316
-0.0323486
-0.045166
-0.0500488
-0.0415039
-0.0271606
-0.00366211
0.0012207
-0.0189209
-0.0332642
-0.0134277
0.00640869
0.0274658
0.0234985
0.0241089
0.00244141
0.0152588
0.00274658
-0.00549316
0
-0.00640869
-0.0180054
-0.0323486
-0.045166
-0.0408936
-0.00701904
0.0204468
0.0457764
0.0299072
0.00427246
0
0.00915527
0.017395
0.00213623
-0.00274658
0.00762939
0.0180054
0.0213623
0.0189209
-0.0305176
-0.0430298
-0.0265503
0.0390625
0.085144
0.111084
0.0930786
0.06073
0.0268555
0.00915527
-0.0143433
-0.0354004
-0.0421143
-0.0228882
-0.00793457
-0.0256348
-0.0234985
-0.0112915
0.0106812
0.0012207
-0.0320435
-0.0427246
-0.0338745
-0.0332642
-0.0192261
-0.0186157
0.00488281
0.0112915
-0.00518799
-0.012207
0.0106812
0.0350952
0.0302124
0.00518799
-0.020752
-0.0491333
-0.0601196
-0.0576782
-0.0637817
-0.0579834
-0.0338745
-0.00335693
-0.00244141
-0.0125122
0.000305176
-0.00518799
-0.0210571
-0.0332642
-0.0360107
-0.0415039
-0.0579834
-0.0738525
-0.062561
-0.027771
0.00457764
0.0366211
0.0283813
0.0167847
0.00854492
-0.0100708
-0.0109863
-0.0109863
0.0186157
0.039978
0.0314331
0.0177002
0.0183105
0.0213623
0.0271606
0.0390625
0.0387573
0.0564575
0.0473022
0.0164795
0.0231934
0.0460815
0.0723267
0.0579834
0.0372314
0.0192261
0.0134277
0.0149536
0.00915527
0.0115967
0.0152588
0.00457764
-0.00610352
-0.0430298
-0.0524902
-0.043335
-0.0256348
0
0.00671387
0.00183105
-0.0131226
-0.0350952
-0.0543213
-0.0543213
-0.0311279
-0.0289917
-0.0134277
-0.0146484
0.0134277
0.0131226
0.00213623
0.00366211
-0.00305176
-0.0112915
-0.00427246
-0.00549316
-0.0201416
-0.0592041
-0.0546265
-0.022583
-0.0112915
-0.0485229
-0.0448608
-0.00305176
0.0317383
0.00549316
0.00671387
0.00671387
0.010376
0.0149536
-0.00640869
-0.00427246
0.00427246
0.0146484
0.055542
0.0411987
0.00946045
-0.0357056
-0.0387573
-0.00640869
0.0244141
0.0527954
0.0668335
0.0671387
0.0485229
0.0363159
0.0158691
0.0170898
0.0268555
0.0238037
0.017395
0.0247192
0.0305176
0.0363159
0.0619507
0.0369263
0.0222778
-0.0115967
-0.0430298
-0.0521851
-0.0509644
-0.0411987
-0.00152588
0.032959
0.0613403
0.0778198
0.0802612
0.0784302
0.0595093
0.0317383
0.0311279
0.0177002
0.0161743
-0.00488281
-0.03479
-0.0524902
-0.0509644
-0.0296021
0.00335693
0.032959
0.0265503
-0.0143433
-0.0164795
-0.0100708
0.00457764
-0.0189209
-0.038147
-0.0177002
0.0289917
0.0323486
0.00183105
-0.0119019
0.00457764
0.00823975
0.0146484
0.0296021
0.0515747
0.0637817
0.0674438
0.0704956
0.0686646
0.039978
0.027771
0.0280762
0
-0.0241089
0.000915527
0.0515747
0.0759888
0.06073
0.0411987
0.0326538
0.0143433
0.020752
0.0201416
0.00427246
0.00640869
-0.00457764
-0.00823975
0.0119019
0.0149536
0.0106812
0.0149536
0.0247192
0.0378418
0.0650024
0.0463867
0.0473022
0.0546265
0.0442505
0.0308228
0.00549316
0
0.00152588
-0.0125122
-0.00549316
0.0204468
0.0479126
0.055542
0.0469971
0.032959
0.0244141
0.00488281
-0.0112915
-0.0256348
-0.00610352
0.0109863
-0.00488281
-0.0320435
-0.0369263
-0.0186157
-0.00152588
0.020752
0.00183105
0.0109863
0.0192261
0.0430298
0.0485229
0.0436401
0.0341797
0.000305176
-0.0271606
-0.0231934
-0.00854492
0.00152588
0.00518799
0.0384521
0.0299072
0.0088501
0.0210571
0.0375366
0.0390625
0.0338745
0.0332642
0.0363159
0.0253296
0.0213623
0.0308228
0.0558472
0.065918
0.0454712
0.0372314
0.0134277
0.0143433
0.0439453
0.0750732
0.0683594
0.0363159
0.0161743
0.017395
0.015564
0.0167847
0.0280762
0.0259399
0.0146484
0.0335693
0.0457764
0.06073
0.0543213
0.0390625
0.027771
0.0219727
0.0201416
0.00671387
0.0112915
0.027771
0.0445557
0.0485229
0.0497437
0.0408936
0.0131226
-0.00762939
-0.015564
-0.0134277
-0.00701904
0.00579834
0.017395
0.0378418
0.0473022
0.0640869
0.0775146
0.032959
0
0.0369263
0.0701904
0.0582886
0.0549316
0.0360107
0.00335693
-0.00823975
-0.0320435
-0.0726318
-0.0360107
0.0192261
0.0506592
0.0674438
0.0534058
0.0305176
0.017395
-0.0241089
-0.00457764
0.0125122
0.050354
0.0466919
0.00549316
0.00762939
0.00976562
0.00793457
0.0256348
0.0289917
0.0259399
0.00671387
0.0256348
0.0228882
0.0143433
0.0332642
0.0402832
0.0527954
0.0564575
0.045166
0.0152588
0.00671387
0.0283813
0.0567627
0.0427246
0.00701904
0.0125122
0.0418091
0.0817871
0.0970459
0.0930786
0.0680542
0.0283813
-0.0180054
-0.0772095
-0.098877
-0.0967407
-0.0778198
-0.0747681
-0.0463867
-0.0305176
0.00152588
0.0259399
0.0518799
0.050354
0.045166
0.0247192
0.0167847
0.00671387
-0.00701904
0.0012207
0.0189209
0.00823975
0.0012207
0
-0.00183105
0.000305176
0
-0.010376
0.00152588
0.0219727
0.0149536
0.0219727
0.0112915
-0.00549316
-0.00274658
0.0180054
0.0332642
0.0442505
0.0634766
0.0802612
0.106506
0.112
0.110168
0.071106
0.00213623
-0.0656128
-0.0912476
-0.0854492
-0.0640869
-0.0430298
-0.0411987
-0.0436401
-0.0405884
-0.0216675
-0.00549316
0
-0.0106812
-0.0289917
-0.00976562
0.00274658
0.0332642
0.055542
0.0546265
0.0378418
0.0332642
0.0567627
0.0527954
0.0119019
-0.0143433
-0.0186157
-0.017395
-0.00335693
-0.0177002
-0.0100708
-0.0112915
-0.0268555
-0.0402832
-0.0152588
0.0280762
0.0326538
-0.00396729
-0.0100708
-0.00732422
0.000610352
0.00427246
0.0262451
0.0363159
0.0378418
0.0265503
0.00305176
-0.0250244
-0.0262451
-0.0100708
0.0192261
0.0424194
0.0384521
0.0228882
0
-0.00366211
0.00915527
0.0289917
0.0491333
0.0402832
0.0357056
0.0323486
0.0238037
0.0158691
0.0271606
0.0146484
0.00671387
-0.0314331
-0.0497437
-0.0335693
0.00701904
0.0415039
0.0479126
0.020752
0.0296021
0.0344849
0.0167847
-0.00518799
-0.0152588
-0.00488281
0.0106812
0.0335693
0.0363159
0.0592041
0.0524902
0.0152588
-0.00244141
-0.0112915
-0.00488281
0.0241089
0.0363159
0.0378418
0.032959
0.0357056
0.0216675
-0.0146484
-0.0210571
-0.0146484
-0.0442505
-0.0546265
-0.0378418
-0.0201416
-0.0146484
-0.0134277
-0.00640869
-0.0271606
-0.0186157
-0.015564
-0.0274658
-0.0250244
-0.0228882
-0.0112915
0.000305176
0.00305176
0.0302124
0.03479
0.0201416
0.0115967
0.00793457
0.0106812
0.0268555
0.0302124
0.0158691
0.00152588
0.00946045
0.0128174
0.0164795
0.0149536
0.0167847
-0.00518799
-0.0167847
-0.00366211
0.00183105
0.010376
0.0317383
0.0442505
0.050354
0.0579834
0.0790405
0.0415039
0.000305176
0.0149536
0.0201416
0.00762939
-0.00396729
-0.0253296
-0.0570679
-0.0650024
-0.0460815
-0.0149536
0.0289917
0.00976562
0.0320435
0.0613403
0.0714111
0.0497437
0.0415039
0.03479
0.00946045
-0.00549316
-0.0152588
-0.0247192
-0.0442505
-0.0524902
-0.0567627
-0.0384521
0.00366211
0.0424194
0.0881958
0.104065
0.0973511
0.0897217
0.0787354
0.045166
0.0088501
0.00640869
0.0289917
0.0247192
-0.00793457
-0.0241089
-0.0662231
-0.109253
-0.0875854
-0.0656128
-0.0360107
-0.0115967
-0.0274658
-0.0396729
-0.0314331
-0.0421143
-0.0241089
-0.0308228
-0.0344849
-0.0115967
-0.0256348
-0.0521851
-0.0411987
-0.00671387
0.015564
0.0384521
0.039978
0.0265503
0.015564
0.00579834
0.017395
0.00335693
-0.0112915
0.0088501
0.0317383
0.0411987
0.0640869
0.0753784
0.0546265
0.0476074
0.0238037
-0.0189209
-0.0436401
-0.0509644
-0.0402832
-0.0271606
-0.0170898
-0.0210571
0
0.015564
0.00823975
-0.0231934
-0.0317383
-0.00244141
-0.00427246
-0.00274658
0.0158691
0.0421143
0.0323486
0.00396729
-0.0323486
-0.0149536
-0.017395
-0.0256348
-0.0436401
-0.038147
-0.0088501
0.0256348
0.0265503
0.0265503
0.0192261
-0.0296021
-0.0527954
-0.0506592
-0.00762939
-0.0170898
0
0.00946045
-0.00671387
-0.00610352
0.0140381
0.0256348
0.0350952
0.0152588
0.00610352
0.0119019
0.00488281
0.00518799
0.0125122
0.043335
0.0695801
0.050354
0.0213623
0.0167847
0.00946045
-0.0253296
-0.0817871
-0.101624
-0.0784302
-0.00457764
0.0561523
0.071106
0.0424194
0.0424194
0.0427246
0.0134277
-0.0393677
-0.0692749
-0.0811768
-0.0784302
-0.0595093
-0.039978
-0.0204468
-0.00183105
0.0167847
0.0384521
0.0582886
0.020752
-0.0231934
-0.0241089
-0.0219727
-0.00366211
0.010376
0.0335693
0.0689697
0.0631714
0.0497437
0.0396729
0.0372314
0.0213623
-0.0259399
-0.0479126
-0.0567627
-0.0686646
-0.050354
-0.0482178
-0.0646973
-0.0650024
-0.0579834
-0.0396729
-0.0244141
-0.0164795
-0.0384521
-0.0177002
-0.0167847
-0.0128174
-0.00183105
0.0238037
0.0366211
0.0445557
0.0482178
0.0418091
0.0213623
-0.0088501
-0.00396729
0.000610352
0.0146484
0.0192261
0.0283813
0.0292969
0.0149536
0
-0.0100708
-0.015564
-0.0372314
-0.0650024
-0.0567627
-0.0473022
-0.050354
-0.032959
-0.0238037
0.0012207
-0.0195312
-0.00457764
0
0
-0.00579834
-0.0146484
-0.0262451
-0.0210571
-0.0280762
-0.0350952
-0.0411987
-0.0161743
0.00946045
0.0439453
0.0418091
0.0372314
0.039978
0.0280762
-0.00335693
-0.0219727
-0.06073
-0.0973511
-0.0866699
-0.0592041
-0.0457764
-0.0445557
-0.0430298
-0.0296021
-0.0128174
0.00915527
0.00701904
0.0241089
0.020752
0.0152588
0.027771
0.0335693
0.00152588
-0.0213623
-0.0286865
-0.032959
0.00183105
0.0244141
0.0259399
0.0195312
0.00823975
0.00701904
0.00335693
-0.00488281
0.00396729
-0.00579834
0
0.0100708
0
0.00823975
0.0109863
0.0192261
0.0253296
0.0393677
0.0231934
0.00549316
0.000915527
0.00579834
0.0137329
-0.0119019
-0.0198364
-0.0335693
-0.0305176
-0.0436401
-0.0357056
-0.0469971
-0.0341797
-0.0088501
-0.022583
-0.0115967
-0.0177002
-0.00518799
0.00396729
0.00579834
0.0286865
0.0405884
0.0418091
0.0427246
0.0363159
0.0384521
0.0393677
0.0378418
0.0460815
0.0720215
0.0631714
0.0216675
-0.038147
-0.0701904
-0.0598145
-0.0524902
-0.0653076
-0.0378418
-0.00427246
-0.0195312
0.00793457
0.00396729
-0.0106812
-0.0186157
-0.0357056
-0.0521851
-0.0234985
0.0131226
0.0247192
0.043335
0.0686646
0.0845337
0.0521851
0.00213623
-0.0338745
-0.0357056
-0.0460815
-0.0323486
0.00549316
0.0311279
0.0378418
0.0131226
0.00549316
0.0241089
0.0177002
0.0198364
0.0125122
0.00427246
0.00946045
-0.00518799
-0.0192261
-0.0430298
-0.0192261
0.00946045
0.0442505
0.027771
0.0161743
0.0125122
0.0231934
0.0262451
0.0302124
0.0363159
0.057373
0.0296021
0.0436401
0.0360107
0.0170898
0.000305176
-0.0216675
-0.0244141
-0.00640869
-0.00762939
-0.00854492
0
-0.00396729
-0.00244141
-0.00274658
-0.0100708
-0.0125122
-0.00579834
0.00335693
0.0326538
0.0527954
0.0894165
0.108643
0.0973511
0.0662231
0.0396729
0.0167847
-0.0344849
-0.0656128
-0.0753784
-0.0863647
-0.0640869
-0.0183105
0.0253296
0.0537109
0.0415039
0.00946045
-0.00823975
-0.0177002
-0.0152588
-0.00915527
0.00213623
0.0112915
0.015564
0.0268555
0.0216675
0.0314331
0.0445557
0.0546265
0.0845337
0.101624
0.116272
0.0921631
0.0646973
0.00152588
-0.0341797
-0.0100708
0.0100708
-0.00701904
-0.0283813
-0.0616455
-0.0540161
-0.0299072
-0.00274658
-0.00640869
0.00610352
0.0143433
0.0143433
0.0180054
0.0305176
0.022583
0.0448608
0.0408936
0.0668335
0.0891113
0.0930786
0.0671387
0.020752
-0.0119019
-0.0210571
-0.017395
-0.0228882
-0.00335693
-0.022583
-0.0402832
-0.0418091
-0.0436401
-0.0460815
-0.0408936
-0.0323486
0.0140381
0.0354004
0.0134277
-0.010376
-0.0222778
-0.0320435
-0.0247192
-0.00335693
0.00518799
0.0192261
0.0280762
0.0286865
0.0393677
0.0485229
0.0408936
0.0473022
0.0360107
0.0314331
0.038147
0.0137329
0.00610352
0.015564
0.0314331
0.0167847
0.00488281
-0.00640869
-0.00183105
0.0280762
0.0497437
0.0418091
0.0152588
-0.0112915
0.00671387
0.0308228
0.0296021
0.0106812
0
-0.0253296
-0.0320435
-0.0332642
-0.0253296
-0.0195312
-0.0338745
-0.0216675
0.010376
0.055542
0.065918
0.0683594
0.038147
0.0119019
0
-0.00488281
-0.00244141
-0.00701904
0.00152588
0.00244141
0.027771
0.0415039
0.045166
0.0262451
0.000610352
-0.00457764
0.0259399
0.0250244
0
0.00152588
0.0088501
0.0012207
0.012207
0.00946045
-0.0119019
-0.0234985
0.00335693
0.045166
0.0817871
0.0753784
0.0750732
0.0421143
-0.00549316
-0.0473022
-0.0674438
-0.0738525
-0.072937
-0.0616455
-0.0350952
-0.00732422
0.00457764
0.00335693
0.0238037
0.0119019
0.015564
0.0244141
-0.00488281
-0.0289917
-0.0283813
-0.0128174
-0.0222778
-0.0320435
-0.0228882
-0.0186157
-0.00732422
0.0115967
0.0299072
0.0228882
0.0265503
0.038147
0.0283813
-0.00366211
-0.0222778
0.010376
0.0140381
-0.00457764
-0.0213623
-0.0308228
-0.0387573
-0.0421143
-0.0119019
-0.00366211
0.0323486
0.055542
0.0643921
0.0497437
0.0259399
0.03479
0.0418091
0.0253296
0.0244141
0.0167847
0.0247192
0.0161743
0.0112915
0.0137329
0.0271606
0.0424194
0
-0.00915527
-0.00823975
-0.0106812
-0.00213623
0.0088501
0.0299072
0.0265503
0.0213623
0.0189209
0.00915527
0.00152588
-0.00610352
-0.0100708
0.00823975
0.0088501
0.00244141
0.00640869
0.00640869
0.00518799
0.0128174
0.0280762
0.0378418
0.0317383
0.020752
0.00274658
-0.0152588
-0.0302124
-0.0228882
-0.0140381
0.00213623
0.0112915
0.0234985
0.0332642
0.0302124
0.022583
0.0134277
-0.00518799
0.00518799
0.0143433
0
0.00183105
-0.00366211
-0.00610352
0.00701904
0.0378418
0.0537109
0.0595093
0.0469971
0.0546265
0.0473022
0.0457764
0.0372314
0.0390625
0.00183105
-0.0100708
0.00488281
0.0198364
0.0302124
0.0231934
0.0106812
0.0234985
0.0534058
0.0527954
0.0387573
0.027771
0.00152588
-0.0180054
-0.0198364
0.0012207
-0.00671387
-0.00854492
-0.0137329
-0.0106812
0.0012207
0.00427246
0.00213623
0.0146484
0.0372314
0.0405884
0.0274658
0.00488281
0.0158691
0.0299072
0.0302124
0.0567627
0.0738525
0.0784302
0.057373
0.027771
0.0213623
0.0375366
0.0253296
0.0134277
-0.00823975
-0.0219727
-0.0259399
-0.017395
-0.00274658
0.00213623
-0.00488281
0.00946045
0.0134277
0.00213623
0.000915527
0.00823975
-0.0115967
0.0012207
-0.00671387
-0.0140381
-0.00488281
0.0134277
0.0167847
0.0320435
0.0448608
0.0527954
0.057373
0.0567627
0.0588989
0.0396729
0.0274658
0.0234985
-0.00457764
-0.0286865
0.017395
0.0256348
0.00183105
-0.0143433
-0.0341797
-0.0372314
-0.0308228
-0.0216675
-0.0106812
-0.0183105
0.00823975
0.0354004
0.0357056
0.0320435
0.0582886
0.0762939
0.0723267
0.0393677
0.0323486
0.0216675
0.0198364
0.0170898
0.0112915
-0.0177002
-0.0656128
-0.0680542
-0.0473022
-0.0384521
-0.0283813
-0.0323486
-0.0125122
-0.0152588
0.00213623
0.00183105
0.017395
0.0335693
0.0354004
0.0289917
0.0152588
0.00183105
0.00457764
0.0250244
0.0231934
-0.0137329
-0.00946045
0.032959
0.06073
0.0491333
0.0244141
-0.00518799
-0.0213623
-0.0631714
-0.0253296
0.0305176
0.0457764
0.0827026
-0.0100708
-0.0643921
-0.104065
-0.0979614
-0.0698853
-0.0253296
0.0323486
0.0765991
0.0927734
0.0680542
0.00701904
-0.0585938
-0.0964355
-0.0823975
-0.0427246
-0.00274658
0.0265503
0.0579834
0.0723267
0.0646973
0.0460815
0.0384521
0.0524902
0.0350952
0.0204468
0.00793457
0.0115967
-0.017395
-0.0302124
0.0335693
0.0363159
-0.00701904
-0.015564
-0.0262451
-0.0323486
-0.0317383
-0.0167847
-0.0106812
0.0164795
0.0628662
0.0741577
0.0738525
0.0628662
0.0088501
-0.0494385
-0.0942993
-0.103149
-0.101929
-0.0881958
-0.0363159
0.0344849
0.0216675
0.0170898
0.0323486
0
-0.0665283
-0.0558472
0.0158691
0.0143433
-0.0268555
-0.0701904
-0.0485229
0
0.0396729
0.0732422
0.083313
0.0601196
0.0570679
0.0253296
0.00488281
-0.017395
-0.050354
-0.0802612
-0.0698853
-0.0253296
0.0112915
0.017395
-0.0210571
-0.0204468
-0.0149536
0.015564
0.0213623
0.0408936
0.0302124
-0.032959
-0.0772095
-0.0735474
-0.00671387
0.0332642
0.0531006
0.0735474
0.1297
0.140686
0.101318
0.0488281
0.0213623
-0.0204468
-0.0436401
-0.0308228
0.0143433
0.0253296
0.0588989
0.0817871
0.104065
0.128784
0.130615
0.0787354
-0.00457764
-0.0146484
0.00274658
-0.0442505
-0.0915527
-0.0622559
0.00579834
0.0216675
0.0241089
0.0466919
0.0820923
0.0622559
0.0524902
0.039978
0.0296021
-0.0137329
-0.0723267
-0.045166
0.0360107
0.0692749
0.038147
-0.0723267
-0.147705
-0.206299
-0.233459
-0.17334
-0.13092
-0.163879
-0.14679
-0.0872803
-0.0674438
-0.153198
-0.158997
-0.10376
-0.0180054
0.0244141
0.0350952
0.0875854
0.148315
0.0912476
-0.0637817
-0.13092
-0.0732422
0.0164795
0.0836182
0.126953
0.0579834
-0.00762939
-0.0256348
-0.0875854
-0.0881958
-0.00488281
0.0106812
-0.0860596
-0.157166
-0.117188
-0.062561
-0.0772095
-0.129089
-0.140381
-0.137939
-0.164795
-0.191956
-0.138245
-0.188599
-0.141296
-0.0552368
-0.062561
-0.117798
-0.106201
-0.0515747
-0.0366211
-0.0958252
-0.119629
-0.182495
-0.184937
-0.125122
-0.0961304
0.00793457
-0.0222778
-0.0161743
0.0869751
0.166931
0.12207
0.0338745
-0.0387573
-0.0323486
-0.0588989
-0.167542
-0.198059
-0.0924683
-0.0320435
0.0790405
0.172729
0.204773
0.0985718
-0.022583
-0.0177002
0.0628662
0.120544
0.123291
0.157166
0.127258
0.120544
0.0363159
0.00366211
0.020752
-0.0143433
-0.111084
-0.160217
-0.00762939
0.140076
0.174255
0.0457764
-0.0509644
-0.133972
-0.124817
-0.0784302
-0.0650024
-0.0564575
-0.027771
0.0427246
0.129089
0.243225
0.307312
0.232239
0.118408
-0.0332642
-0.0146484
-0.083313
-0.0439453
0.0686646
0.0839233
0.038147
0.0637817
0.212708
0.222473
0.137024
0.071106
-0.00640869
-0.161743
-0.342407
-0.22644
0.000915527
0.198975
0.191345
0.0671387
-0.0100708
0.0180054
0.0668335
0.169678
0.176392
0.124512
0.100098
0.10498
0.123596
0.0909424
0.0701904
0.085144
0.149231
0.189209
0.129089
-0.0158691
-0.0924683
-0.101929
-0.103455
-0.171509
-0.171509
-0.045166
0.0973511
0.134277
0.149841
0.127869
0.0869751
0.0305176
0.0448608
0.108032
0.105286
0.0537109
-0.0784302
-0.0894165
-0.0534058
0.0149536
0.149841
0.21637
0.156555
0.144348
0.120544
0.0512695
-0.0360107
0.0125122
0.115967
0.142517
0.0439453
0.0610352
0.0830078
-0.000915527
-0.100708
-0.138855
-0.155029
-0.0967407
0.055542
0.223389
0.21698
0.227356
0.210876
0.203247
0.256958
0.291443
0.267334
0.213928
0.0698853
-0.0720215
-0.183716
-0.162048
-0.00183105
0.0473022
-0.0177002
-0.00518799
-0.0100708
0.0012207
0.131226
0.0915527
0.027771
-0.038147
0.0698853
0.246277
0.28595
0.186462
0.0860596
0.152283
0.116577
-0.0524902
-0.17395
-0.205383
-0.111389
0.0192261
0.113525
0.133667
0.231934
0.166931
0.0201416
-0.0302124
-0.135498
-0.187378
0.00823975
0.0234985
0.0588989
0.098877
0.169983
0.162048
0.102844
0.129395
0.259705
0.299683
0.206299
0.0341797
-0.161133
-0.316162
-0.218506
-0.071106
0.139465
0.22583
0.106812
-0.0845337
-0.0964355
-0.101929
-0.0793457
0.00946045
-0.0158691
-0.0982666
0.0268555
0.0360107
0.0619507
0.0888062
0.0671387
0.0125122
-0.131531
-0.196533
-0.357056
-0.421448
-0.523376
-0.596008
-0.227051
0.145264
0.241089
0.241394
0.189819
0.198975
0.181274
0.197754
0.18158
0.211792
0.176392
0.105286
0.0662231
0.0671387
-0.0466919
-0.166626
-0.170288
-0.181274
-0.139465
-0.032959
0.0991821
0.15564
0.182495
0.158997
0.0967407
0.0952148
0.0775146
-0.0140381
-0.14801
-0.339966
-0.411682
-0.347595
-0.18158
-0.0360107
0.0634766
0.184021
0.304871
0.282898
0.164795
0.0524902
0.00244141
-0.0326538
0.0363159
0.0265503
-0.250549
-0.323181
-0.426636
-0.376587
-0.152283
0.0793457
0.211182
0.180054
0.0579834
-0.0564575
-0.149841
-0.206604
-0.0994873
-0.0924683
-0.0778198
0.180359
0.314941
0.212402
0.0680542
-0.0210571
0.0900269
0.222473
0.182495
0.112
0.0930786
0.0476074
0.0686646
-0.017395
-0.119324
-0.283508
-0.466003
-0.146484
0.134277
0.317993
0.127563
-0.0405884
-0.0979614
-0.192566
-0.183411
-0.119934
-0.015564
0.072937
0.282593
0.426941
0.395813
0.370178
0.242004
0.0921631
-0.0341797
-0.137329
-0.179138
-0.30304
-0.31189
-0.158997
-0.0564575
-0.0100708
-0.0714111
-0.0894165
-0.0167847
-0.0112915
-0.111084
-0.141907
-0.093689
0.16571
0.364075
0.282898
0.0653076
-0.161133
-0.226135
-0.177002
-0.200195
-0.150452
-0.0790405
-0.0265503
0.00823975
-0.00274658
-0.0259399
-0.160828
-0.198364
-0.0875854
0.0396729
0.122375
0.178223
0.158386
0.229187
0.245056
0.155334
0.057373
-0.0552368
0.0186157
-0.0308228
-0.162354
-0.313416
-0.35675
-0.32074
-0.160522
0.0485229
0.205994
0.202637
0.106506
-0.0640869
-0.128479
-0.170593
-0.212708
-0.170288
-0.1297
-0.0338745
0.0485229
0.102234
0.188904
0.287781
0.280151
0.206909
0.2005
0.247803
0.310059
0.253906
0.0875854
-0.0958252
-0.231934
-0.3302
-0.149536
-0.118408
-0.259094
-0.272522
-0.214539
-0.115356
-0.0271606
0.328369
0.550232
0.456543
0.328064
0.107727
-0.0845337
-0.223694
-0.204468
-0.121155
-0.0827026
-0.0634766
-0.13031
-0.0671387
0.00518799
-0.152283
-0.32196
-0.386963
-0.198669
0.147705
0.188599
0.129089
0.102844
0.0253296
-0.0463867
0.00915527
0.0576782
0.129089
0.11261
0.00457764
-0.0924683
-0.0967407
-0.101318
-0.0479126
0.0189209
-0.0234985
0.0695801
0.18219
0.24353
0.242615
0.222778
0.0970459
-0.0421143
-0.14801
-0.219421
-0.224915
-0.175171
-0.0390625
0.0534058
0.0317383
0.0314331
0.0756836
0.163879
0.179443
-0.0109863
-0.343628
-0.71167
-0.563965
-0.00610352
0.321045
0.342102
0.335693
0.268555
0.137329
0.0570679
-0.0421143
-0.0543213
-0.0289917
0
-0.101013
-0.0604248
-0.0595093
-0.0820923
0.0631714
0.0256348
0.050354
0.244751
0.281372
0.147705
0.0765991
0.00183105
0.0112915
0.0888062
0.0875854
-0.0338745
-0.00152588
0.114441
0.140686
0.0418091
-0.176697
0.00549316
0.00396729
-0.257568
-0.326538
-0.179749
-0.121155
-0.137024
-0.0588989
0.057373
0.354614
0.354919
0.258484
0.146484
0.0952148
0.0894165
0.12207
0.162048
0.117188
0.0241089
-0.178223
-0.360107
-0.311279
-0.0869751
0.122375
0.204773
0.164795
0.038147
0.0512695
0.129089
0.127563
0.177307
0.174255
0.0811768
-0.10437
-0.219421
-0.233459
-0.221863
-0.138855
0.0415039
0.134583
0.0878906
-0.0210571
-0.134583
-0.0949097
0.0744629
0.190735
0.240173
0.134888
0.0582886
0.032959
-0.0354004
-0.103455
-0.163269
-0.119324
-0.0320435
-0.0610352
-0.140686
-0.0973511
0.0244141
0.163574
0.169373
0.131226
0.114746
0.0784302
-0.133057
-0.298767
-0.298462
-0.161133
0.195923
0.317383
0.245361
0.14679
0.0897217
0.0524902
0.0149536
0.0152588
-0.0863647
-0.20874
-0.340881
-0.274963
0.0869751
0.320435
0.503845
0.547791
0.418396
0.366821
0.392456
0.293884
0.0222778
-0.201111
-0.341492
-0.452576
-0.395508
-0.161438
0.140686
0.166626
-0.124512
-0.415955
-0.344849
-0.196533
-0.0827026
0
0.0866699
0.10376
-0.101318
-0.148926
-0.0970459
0.0424194
0.101624
0.0918579
0.090332
0.00366211
-0.248718
-0.376892
-0.330505
-0.170593
0.0967407
0.377197
0.460815
0.247803
0.0204468
-0.0802612
-0.0344849
0.0570679
0.0866699
0.0823975
0.112
0.112
0.0671387
0.0106812
-0.0299072
-0.0582886
-0.144348
-0.161438
0
0.00366211
-0.0143433
0.0540161
0.119019
0.0982666
0.0302124
-0.141296
-0.28595
-0.279846
-0.0201416
0.194092
0.0830078
-0.00823975
-0.00488281
-0.0521851
-0.0466919
0.0170898
0.00610352
-0.015564
0.0192261
0.0131226
-0.0704956
-0.0357056
0.103149
0.201111
0.23407
0.259094
0.19928
0.141602
0.141296
0.0170898
-0.0296021
0.0534058
0.0875854
0.116882
0.119934
0.0695801
-0.131531
-0.368958
-0.51178
-0.389404
-0.00640869
0.235291
0.332336
0.263977
0.0210571
-0.0323486
0.032959
0.0485229
0.015564
-0.0280762
-0.083313
-0.088501
-0.0802612
-0.09552
-0.0646973
0.0314331
0.0393677
-0.0494385
-0.160217
-0.157471
-0.0588989
0.0234985
0.0210571
0.11261
0.262756
0.222473
0.130615
0.0289917
-0.0177002
-0.143127
-0.176392
-0.0900269
-0.0469971
-0.153809
-0.197144
-0.348206
-0.230103
0.113831
0.221252
0.0668335
0.0506592
0.0613403
0.0759888
0.0830078
-0.0189209
-0.00152588
0.072937
0.142822
0.138855
0.0656128
-0.0473022
-0.108948
-0.0619507
-0.0204468
0.0610352
0.151672
0.158386
0.0701904
0
0.0772095
-0.0137329
-0.0115967
0.104675
0.06073
-0.0909424
-0.263062
-0.258484
-0.144653
-0.302429
-0.213013
-0.0686646
-0.0100708
0.137329
0.377197
0.470886
0.396423
0.270691
0.137329
0.18158
0.184326
0.0958252
-0.012207
-0.177612
-0.235901
-0.174866
-0.322876
-0.340576
-0.145874
-0.0604248
-0.0888062
-0.137939
-0.0531006
-0.0137329
0.0305176
0.115051
0.125427
-0.0115967
-0.167542
-0.0671387
0.0457764
0.0106812
-0.00488281
0.0723267
0.0805664
0.107117
0.136414
0.136108
0.151367
0.167236
0.122986
0.0790405
0.0311279
-0.0415039
-0.115051
-0.195312
-0.25116
-0.198975
-0.162048
-0.0186157
0.267029
0.350342
0.389099
0.353699
0.176086
-0.0119019
-0.121765
-0.0891113
-0.0793457
-0.0961304
-0.0436401
0.0756836
0.221558
0.148621
-0.0167847
-0.143127
-0.187683
-0.155334
-0.18158
-0.183716
-0.170593
-0.238342
-0.101929
0.0109863
0.0662231
0.0723267
0.111084
0.19165
0.248108
0.162964
0.0332642
-0.148926
-0.214539
-0.317383
-0.49408
-0.300293
0.0369263
0.0665283
-0.0112915
0.105591
0.128174
0.160828
0.253296
0.232239
0.19928
0.153809
0.171814
0.224304
0.172119
0.102844
0.0473022
0.0402832
0.0827026
0.159607
0.0741577
-0.0631714
-0.281677
-0.48584
-0.502014
-0.390625
-0.327454
-0.28595
0.101624
0.258179
0.114136
0.0799561
0.0650024
0.015564
-0.0131226
-0.00396729
0.0302124
0.0595093
0.0650024
0.0650024
0.038147
0.027771
0.13092
0.133362
0.128784
0.0765991
0.0830078
0.19928
0.254822
0.157471
0.0305176
-0.0469971
-0.0866699
-0.109558
-0.139465
-0.141296
-0.176086
-0.198059
-0.129395
-0.0585938
-0.0915527
0.00274658
0.0524902
0.0250244
-0.0933838
-0.217896
-0.0253296
0.227661
0.216675
0.130615
0.104065
0.0726318
0.0744629
0.0814819
0.0723267
-0.0286865
-0.0427246
0
-0.00823975
-0.0717163
-0.0439453
-0.0552368
-0.129089
-0.222168
-0.182495
0.0158691
0.127869
0.0674438
0.0265503
0.015564
0.180969
0.299377
0.222168
0.0894165
0.0131226
0.00610352
-0.0485229
-0.0927734
0.0109863
0.21759
0.116882
-0.0985718
-0.149841
-0.162964
-0.403137
-0.675964
-0.481262
0.00640869
0.265503
0.220032
0.200195
0.267944
0.282593
0.122986
-0.0396729
-0.145569
-0.0973511
0.0500488
0.0369263
0.0442505
0.115051
0.0720215
0.0686646
0.0570679
0.0177002
-0.0836182
-0.143738
-0.122681
-0.0650024
0.0689697
0.126343
0.144348
0.171814
0.162354
0.0265503
-0.126648
-0.24292
-0.285339
-0.0900269
0.180054
0.303955
0.318298
0.301514
0.283203
0.256042
0.203247
0.0350952
-0.179443
-0.250549
-0.287476
-0.243225
-0.0204468
0.111389
0.0952148
0.0408936
-0.0985718
-0.205383
-0.187683
-0.123291
-0.0802612
0.0363159
0.112
0.173035
0.193481
0.213928
0.123291
0.00701904
-0.108032
-0.134583
-0.202332
-0.085144
0.00701904
0
0.0689697
0.0515747
-0.25177
-0.527649
-0.597534
-0.702209
-0.489807
0.135498
0.398865
0.446777
0.33783
0.221863
0.284729
0.348511
0.297852
0.136414
0.00335693
-0.0714111
-0.0930786
-0.0415039
0.0619507
0.122375
0.105896
0.150146
0.0637817
-0.0906372
-0.127563
-0.180054
-0.19104
-0.143127
-0.032959
0.072937
0.18158
0.219116
0.19928
0.119629
-0.0192261
-0.0979614
-0.0921631
-0.000305176
0.00549316
0.0317383
0.0363159
-0.012207
-0.045166
0.0393677
-0.055542
-0.210266
-0.16449
-0.0842285
0.0332642
0.127869
0.0817871
0.0323486
0.0140381
-0.017395
-0.0894165
-0.0845337
-0.0372314
-0.0259399
0.101013
0.171814
0.124817
0.104065
0.145569
0.123901
0.00488281
-0.0454712
-0.0430298
0.0524902
0.152893
0.174561
0.140991
0.145874
0.0912476
-0.111389
-0.271301
-0.254211
-0.294495
-0.219421
-0.062561
0.00518799
0.0250244
0.0961304
0.111694
0.0439453
-0.0167847
-0.0088501
0.00915527
0.00549316
0.0219727
0.088501
0.0650024
0.0579834
0.0741577
0.0662231
0.0323486
0.0656128
0.0604248
0.0228882
-0.0982666
-0.223999
-0.386047
-0.539856
-0.390625
0.0570679
0.261536
0.244141
0.222168
0.193787
0.126038
0.0457764
0.0430298
0.012207
-0.0265503
-0.0402832
0.108337
0.327759
0.294495
0.177612
0.09552
-0.0222778
-0.0567627
-0.0201416
0.0268555
0.0701904
0.0997925
0.0769043
0.0320435
-0.0180054
-0.127869
-0.186462
-0.155334
-0.0631714
-0.0717163
-0.0402832
-0.0863647
-0.0466919
0.015564
0.0671387
0.00274658
-0.104065
-0.174255
-0.0744629
0.151367
0.289612
0.346375
0.232544
0.0714111
-0.0808716
-0.140991
-0.15686
-0.175171
-0.138245
-0.0579834
-0.0259399
-0.00640869
0.0411987
0.0186157
-0.12085
-0.375671
-0.47821
-0.24231
0.00640869
0.141296
0.276184
0.21698
0.130005
0.101624
0.159302
0.16571
0.093689
0.0128174
-0.0198364
0.108948
0.170593
0.180664
0.131226
0.131226
0.127869
0.119629
0.00488281
-0.0839233
-0.0906372
-0.137329
-0.340881
-0.274353
-0.143433
-0.0735474
-0.0646973
0.00823975
0.182495
0.268555
0.193481
0.104065
0.0469971
-0.0289917
-0.0582886
-0.101318
-0.043335
-0.03479
-0.110168
-0.157776
-0.1474
-0.142517
-0.180054
-0.206604
-0.342712
-0.184937
0.0714111
0.140076
0.105591
0.104675
0.202637
0.157166
0.0466919
-0.098877
-0.0698853
0.0213623
-0.0408936
-0.0479126
0.0360107
0.133667
0.129089
0.11322
0.104065
0.0970459
0.133057
0.201111
0.162354
0.0759888
0.038147
0.0283813
0.0689697
0.110779
0.106812
0.0863647
0.0418091
0.0534058
0.0320435
-0.0265503
-0.0244141
-0.0604248
-0.0674438
-0.032959
-0.0274658
-0.0564575
-0.0375366
-0.045166
-0.0875854
-0.0894165
0.0119019
0.0354004
-0.0469971
-0.0991821
-0.123596
-0.12146
-0.0537109
0.0448608
0.0524902
0.00640869
0.0189209
0.142517
0.165405
0.0878906
0.0363159
-0.0265503
-0.0967407
-0.0622559
0.0518799
0.129089
0.117798
0.093689
0.0836182
0.0866699
0.0448608
-0.0354004
-0.0720215
-0.0881958
-0.0845337
-0.0280762
-0.00793457
-0.110779
-0.227356
-0.247498
-0.0164795
0.144348
0.102844
-0.027771
-0.20813
-0.219421
-0.0933838
0.111389
0.174255
0.198669
0.161438
0.100403
0.0457764
0.108643
0.184326
0.174255
0.11322
0.0793457
0.0775146
0.0302124
0.0262451
-0.0686646
-0.00305176
0.071106
0.0817871
0.0326538
-0.0088501
-0.0619507
-0.0769043
-0.0970459
-0.137939
-0.162964
-0.0894165
0.0265503
0.0500488
0.0167847
-0.0378418
-0.129395
-0.132751
-0.121155
-0.032959
0.0262451
0.0863647
0.140076
0.140991
0.0961304
0.00946045
-0.0567627
-0.101624
0.0527954
0.195618
0.160217
0.135498
0.0946045
0.0494385
0.0466919
0.0680542
0.0595093
0.0384521
0.00671387
-0.0106812
-0.0213623
0.0628662
0.0814819
0.0338745
-0.00793457
-0.0494385
-0.0320435
0.00579834
0.0265503
0.157776
0.267334
0.23407
0.111389
-0.0701904
-0.15686
-0.123596
-0.0747681
-0.0390625
-0.072937
-0.0842285
0.00579834
0.120239
0.00671387
-0.0888062
-0.0836182
-0.0637817
-0.118408
-0.176392
-0.129089
-0.0482178
-0.012207
0.0576782
0.0671387
0.020752
-0.0161743
0.020752
0.0692749
0.0509644
-0.0222778
-0.0445557
-0.101624
-0.144348
-0.135193
-0.0961304
-0.055542
-0.0128174
0.0708008
0.090332
0.0509644
0.062561
0.0631714
0.0466919
0.10437
0.148621
0.0784302
-0.0134277
-0.00976562
0.0375366
0.125427
0.181274
0.195007
0.173035
0.11261
0.0283813
0.00366211
-0.0866699
-0.113831
-0.045166
0.0164795
0.0814819
0.110779
0.143738
0.127869
0.105286
0.0137329
-0.0283813
-0.0332642
-0.0143433
0.0012207
0
0.000610352
0.017395
0.0213623
-0.0228882
-0.0875854
-0.119629
-0.0558472
-0.06073
-0.0802612
-0.0469971
0.0854492
0.115051
0.0619507
0.00579834
-0.0515747
-0.100098
-0.144348
-0.176086
-0.143127
-0.0784302
-0.0628662
-0.0457764
0.012207
0.0869751
0.0497437
-0.0402832
-0.0604248
0.113831
0.193176
0.186157
0.173035
0.112305
0.017395
-0.0735474
-0.154724
-0.1474
-0.0982666
0.0637817
0.129395
0.0726318
0.0793457
0.0839233
0.0204468
0.071106
0.112915
0.0601196
-0.00335693
0.0216675
0.0317383
0.0146484
-0.00946045
-0.0183105
-0.015564
0.00488281
-0.0534058
-0.101624
-0.122375
-0.132751
-0.101929
-0.0698853
-0.0854492
-0.0894165
0.0222778
0.0958252
0.129089
0.119019
0.157776
0.160217
0.168152
0.101318
-0.0296021
-0.1474
-0.267029
-0.215149
-0.0991821
-0.0210571
0.0125122
0.038147
0.0668335
0.0393677
-0.0152588
-0.0579834
-0.0473022
-0.0320435
-0.00457764
0.0952148
0.143738
0.171814
0.190735
0.124207
0.0360107
-0.0601196
-0.13092
-0.202332
-0.243225
-0.178833
0.0384521
0.259705
0.238037
0.108643
-0.055542
-0.111694
-0.144043
-0.131226
-0.125122
-0.0732422
0
0.111694
0.0909424
0.0274658
-0.032959
-0.0192261
0.0369263
0.0180054
0.0552368
0.0524902
0.116272
0.0656128
0.0149536
0.0259399
0.0454712
0.00213623
-0.038147
-0.0668335
-0.105591
-0.100708
-0.0521851
0.0259399
0.0195312
0.00213623
-0.00640869
0.000305176
0.0564575
0.0817871
0.0350952
0.0253296
0.0634766
0.0668335
0.0723267
0.0115967
-0.0552368
-0.181885
-0.228577
-0.101013
0.196533
0.341492
0.262756
0.163574
0.115051
0.136108
0.0820923
0.0369263
-0.00427246
-0.0634766
-0.0857544
-0.124207
-0.0469971
-0.017395
-0.0546265
-0.106201
-0.108948
-0.0827026
-0.0149536
0.00305176
-0.0598145
-0.0521851
-0.0100708
-0.039978
-0.108948
-0.151367
-0.187073
-0.200195
-0.0616455
0.0842285
0.153503
0.159607
0.159912
0.113525
0.0656128
0.0439453
0.0115967
-0.0341797
-0.0112915
0.0177002
0.0250244
0.000915527
-0.0283813
-0.10498
-0.159607
-0.11322
-0.0201416
-0.00152588
0.0500488
0.104675
0.0930786
0.0582886
0.0320435
-0.00396729
-0.0216675
-0.0720215
-0.13092
-0.0439453
0.149536
0.261536
0.213623
0.162048
0.159302
0.0918579
-0.0564575
-0.186768
-0.209045
-0.072937
-0.0509644
-0.0918579
-0.0665283
-0.0143433
0.0106812
0.00152588
-0.0338745
-0.0588989
0.00946045
0.0952148
0.124207
0.148926
0.0735474
0.032959
0.0183105
0.032959
0.00549316
-0.0167847
-0.0265503
-0.0137329
0.00213623
0.0119019
0.0170898
-0.0146484
-0.0408936
-0.0619507
-0.0894165
-0.0991821
-0.0180054
0.00793457
0.0732422
0.067749
0.0506592
0.0369263
0.0317383
-0.00701904
0.015564
0.0457764
0.045166
0.0421143
0.0619507
0.078125
0.115051
0.114746
0.0619507
0.00671387
-0.0952148
-0.187988
-0.217896
-0.151672
0.0289917
0.0949097
0.0958252
0.0650024
0.0317383
0.0387573
0.0695801
0.098877
0.0790405
0.0369263
-0.0723267
-0.0869751
-0.0384521
0.00671387
0.0247192
-0.0296021
-0.0802612
-0.0448608
0.0140381
0.0558472
-0.0265503
-0.0582886
-0.0271606
0
-0.0500488
-0.0881958
-0.093689
-0.0784302
-0.0119019
0.114136
0.162964
0.130005
0.0915527
0.0592041
0.0482178
0.0619507
0.0695801
0.0759888
0.0628662
0.0222778
-0.0216675
-0.0473022
-0.0778198
-0.0637817
-0.0479126
-0.0506592
0
0.00427246
0.0177002
0.0646973
0.0393677
0.000305176
0.0247192
0.0491333
0.0790405
0.039978
-0.0106812
-0.00640869
0.0012207
0.000915527
0.0320435
0.0616455
0.093689
0.0656128
0.0314331
0.00335693
-0.00305176
-0.00793457
0.0167847
0.0167847
-0.0109863
-0.0332642
-0.0363159
-0.012207
0.0317383
0.0408936
0.0128174
-0.0112915
-0.0253296
-0.0616455
-0.0769043
-0.150452
-0.185852
-0.169983
-0.0796509
0.0515747
0.0762939
0.0228882
0.015564
0.0424194
0.0479126
0.0485229
0.0891113
0.0628662
0.06073
0.0588989
0.0570679
0.0692749
0.071106
0.0900269
0.114441
0.0604248
0.00366211
-0.0405884
-0.0430298
-0.0726318
-0.0363159
-0.0149536
-0.0198364
-0.0256348
-0.0411987
-0.0262451
-0.00152588
0.00274658
0.00427246
0.0198364
0.0527954
0.0473022
0.0396729
0.0210571
0.0186157
0.00701904
0.055542
0.108948
0.0680542
0.00244141
-0.0109863
-0.0357056
-0.0598145
-0.0534058
-0.0881958
-0.153809
-0.203552
-0.175476
-0.0927734
-0.0378418
0.0424194
0.102234
0.107117
0.0857544
0.0524902
-0.00762939
-0.0595093
-0.0827026
-0.102234
-0.116882
-0.0881958
-0.0314331
-0.00671387
-0.0320435
-0.0259399
-0.0595093
-0.0115967
0.103455
0.10437
0.0793457
0.03479
0.0250244
0.0222778
0.0427246
0.0424194
0.0540161
0.0640869
0.0701904
0.0668335
0.0619507
0.0405884
-0.0427246
-0.104065
-0.0204468
0.0567627
0.0509644
0.027771
-0.0939941
-0.115356
-0.0827026
-0.0296021
0.0280762
0.0140381
-0.010376
0.0131226
0.0390625
0.0732422
0.0994873
0.125427
0.110474
0.098877
0.0930786
0.0662231
0.0256348
0.0430298
0.0921631
0.0964355
0.0582886
0.0259399
0.000915527
-0.0357056
-0.0869751
-0.113831
-0.0997925
-0.0753784
-0.0344849
-0.0201416
-0.0216675
0.000610352
0.03479
0.0540161
0.0720215
0.0515747
0.0115967
-0.010376
-0.0265503
-0.0540161
-0.0643921
-0.0836182
-0.0552368
-0.0375366
-0.017395
-0.0100708
0.00488281
0.0134277
0.0332642
0.0494385
0.0784302
0.0823975
0.0686646
0.0485229
0.0549316
0.0640869
-0.00244141
-0.0595093
-0.0769043
-0.0320435
-0.0314331
-0.0268555
-0.0128174
-0.00152588
-0.0109863
-0.0332642
-0.0378418
-0.0445557
-0.0299072
-0.0088501
0.0222778
0.0527954
0.0689697
0.0674438
0.0405884
0.00366211
0.00366211
-0.00335693
-0.0421143
-0.0643921
0.0335693
0.093689
0.110168
0.0717163
0.0204468
-0.0271606
-0.0369263
-0.0222778
0
0.0546265
0.107117
0.126648
0.127563
0.0949097
0.0717163
0.0241089
-0.0387573
-0.0814819
-0.0967407
-0.0653076
-0.0482178
-0.0271606
-0.0115967
-0.0231934
-0.0473022
-0.0793457
-0.117188
-0.115662
-0.100708
-0.0634766
-0.0112915
0.0204468
0.0311279
0.0326538
0.0192261
-0.0088501
-0.0167847
-0.0274658
-0.0396729
-0.0363159
-0.0088501
-0.00488281
0.0546265
0.0750732
0.0341797
-0.0567627
-0.0695801
-0.0720215
-0.0689697
0.0241089
0.0921631
0.088501
0.0939941
0.0823975
0.0570679
0.0204468
-0.00396729
0.0186157
0.00946045
0.00732422
0.0189209
-0.00610352
-0.0180054
-0.0259399
-0.0100708
0.00701904
0.0149536
0.0170898
0.00854492
0
0.00640869
0.0259399
0.0540161
0.0964355
0.0827026
0.067749
0.0326538
-0.022583
-0.0500488
-0.0650024
-0.0454712
-0.0152588
-0.0332642
-0.0393677
-0.00823975
-0.00366211
0.000305176
0.0302124
0.0701904
0.112915
0.137939
0.145874
0.125732
0.06073
0.0265503
-0.00427246
-0.0662231
-0.104675
-0.112305
-0.0906372
-0.0933838
-0.0671387
-0.0296021
0.00274658
-0.0100708
0.00427246
0.00793457
0.012207
0.00579834
0.00396729
0
-0.0463867
-0.0744629
-0.0875854
-0.0961304
-0.085144
-0.0543213
-0.0384521
-0.0299072
-0.0125122
0.0219727
0.0402832
0.0253296
0.0100708
-0.0204468
-0.0344849
-0.0332642
-0.062561
-0.0552368
-0.0262451
0.0216675
0.0375366
0.0546265
0.0588989
0.020752
-0.0164795
-0.0222778
0.0149536
0.0131226
0.00152588
-0.022583
-0.0247192
0.0204468
0.0973511
0.0854492
0.0244141
-0.0778198
-0.125732
-0.159912
-0.0482178
0.0485229
0.0485229
-0.00946045
-0.0564575
-0.0585938
-0.0247192
-0.00213623
-0.0146484
-0.0360107
-0.0512695
-0.00793457
0.0424194
0.0973511
0.0738525
0.0616455
-0.0210571
-0.0769043
-0.10376
-0.0912476
-0.03479
0.0448608
0.101013
0.0619507
0.0421143
0.0598145
0.0827026
0.0811768
0.0723267
0.0979614
0.154724
0.162964
0.13092
0.0289917
-0.0610352
-0.11322
-0.14679
-0.158386
-0.120239
-0.0695801
-0.0314331
0.00549316
-0.0012207
-0.0357056
-0.00274658
-0.00213623
-0.0119019
-0.00823975
-0.0112915
-0.00793457
-0.00366211
0.0262451
0.0436401
0.0650024
0.0796509
0.0164795
-0.0796509
-0.119019
-0.0616455
0.0286865
0.0460815
0.0308228
0.0201416
0.0119019
0.0152588
0.0570679
0.0619507
0.0415039
0.0570679
0.102234
0.140076
0.175476
0.186462
0.180054
0.132751
0.062561
0.00762939
-0.0308228
-0.0823975
-0.131836
-0.149536
-0.139465
-0.108032
-0.0991821
-0.110474
-0.111389
-0.0997925
-0.0601196
-0.017395
0.00244141
0.0088501
0.000915527
0.0418091
0.0909424
0.131531
0.1297
0.107117
0.0842285
0.0650024
0.0714111
0.0109863
-0.0875854
-0.0881958
-0.0924683
-0.0588989
-0.017395
-0.0012207
-0.0125122
-0.0167847
0.00762939
0.0314331
0.0582886
0.0485229
-0.0274658
-0.0900269
-0.062561
0.0222778
0.0515747
0.038147
0.0088501
-0.00793457
0.000915527
0.0357056
0.0268555
0.0119019
-0.0241089
-0.0256348
0.00518799
0.0271606
0.0497437
0.0717163
0.0967407
0.0839233
-0.0134277
-0.102234
-0.112
-0.0793457
-0.0628662
-0.0427246
-0.0195312
0.0231934
0.0753784
0.116577
0.118713
0.117188
0.125427
0.0869751
0.027771
-0.0228882
-0.0747681
-0.00183105
0.0521851
0.0430298
0.0186157
-0.0180054
-0.0543213
-0.0643921
-0.015564
0.0244141
0.0671387
0.104065
0.110779
0.144958
0.184326
0.171814
0.126648
0.0689697
0.00518799
-0.0216675
-0.0726318
-0.067749
-0.0473022
0.00518799
0.00671387
-0.0088501
-0.0357056
-0.0466919
