0.106506
0.0540161
-0.038147
-0.144958
-0.172424
-0.123291
-0.0521851
-0.0180054
0.020752
0.108643
0.191956
0.184021
0.0448608
-0.105286
-0.175476
-0.149231
-0.0909424
-0.0393677
-0.0268555
-0.0314331
-0.00762939
0.0231934
0.0424194
0.0521851
0.017395
-0.00946045
-0.0119019
-0.0100708
-0.0387573
-0.0845337
-0.0784302
-0.0119019
0.0967407
0.190125
0.187378
0.153198
0.0411987
-0.101929
-0.147705
-0.0894165
-0.0967407
-0.101013
-0.0274658
0.0558472
0.149231
0.197449
0.130615
0.0787354
0.0259399
-0.0735474
-0.0875854
-0.00701904
-0.0363159
-0.0933838
-0.0839233
-0.101013
-0.0561523
-0.0479126
-0.0360107
-0.0317383
-0.015564
0.0430298
0.0692749
0.118103
0.157471
0.116272
0.0878906
0.0314331
-0.022583
-0.057373
-0.119324
-0.133972
-0.0967407
-0.0823975
-0.0982666
-0.127869
-0.0967407
-0.00518799
0.0515747
0.0845337
0.0881958
0.0466919
0.0253296
0.0253296
0.0289917
-0.055542
-0.0967407
-0.0656128
-0.0262451
-0.0119019
0.0183105
0.0375366
0.0326538
0.0341797
0.0628662
0.0946045
0.0918579
0.136414
0.157471
0.164185
0.145569
0.0588989
-0.0582886
-0.130615
-0.116577
-0.128479
-0.0787354
-0.0442505
-0.0778198
-0.0708008
-0.017395
0.00152588
0.00732422
0.0592041
0.0759888
0.0561523
0.0180054
-0.00732422
-0.0271606
-0.0579834
-0.106506
-0.116882
-0.106812
0.027771
0.198059
0.257874
0.268555
0.233765
0.13916
0.114441
0.0796509
0.0543213
0.0119019
-0.0582886
-0.0369263
-0.0900269
-0.135498
-0.129089
-0.104675
-0.0909424
-0.0653076
-0.0408936
-0.03479
-0.0427246
-0.0543213
-0.0601196
-0.0497437
0.0421143
0.0613403
0.0140381
-0.0476074
-0.127563
-0.133057
-0.0268555
0.0167847
0.0164795
0.0253296
0.0741577
0.136414
0.16571
0.153198
0.11322
0.0997925
0.126038
0.207214
0.254211
0.25238
0.236511
0.0787354
-0.0418091
-0.0802612
-0.137939
-0.184326
-0.198059
-0.149536
-0.0531006
-0.0213623
-0.0439453
-0.0808716
-0.0564575
-0.0128174
0.0543213
0.0741577
0.0741577
0.065918
0.0341797
-0.00457764
-0.0476074
0.0561523
0.251465
0.39978
0.410767
0.245667
0.0131226
-0.188599
-0.230713
-0.218811
-0.223694
-0.139771
-0.0665283
-0.0134277
0.00579834
0.0119019
0.0189209
0.0216675
0.055542
0.0823975
0.15564
0.189514
0.164185
0.0808716
-0.0152588
-0.0567627
-0.100403
-0.112
-0.0448608
0.00213623
0.0259399
0.06073
0.0973511
0.122986
0.114136
0.0787354
0.0402832
-0.0476074
-0.0811768
-0.0418091
0.0485229
0.109863
0.125732
0.0860596
0.0137329
-0.0521851
-0.0588989
-0.0299072
0.0198364
0.0527954
0.0430298
0.0524902
0.0622559
0.0784302
0.0784302
0.06073
0.0177002
0.0109863
0.0286865
0.0216675
0.00274658
-0.0534058
-0.0845337
-0.0088501
0.0357056
0.0616455
0.0961304
0.159607
0.273132
0.284119
0.129395
0.00640869
-0.133972
-0.115356
-0.108643
-0.134888
-0.110168
-0.123291
-0.184937
-0.236511
-0.226135
-0.161743
-0.0601196
0.0180054
0.101318
0.177307
0.116272
0.0314331
-0.0665283
-0.0836182
-0.0134277
0.0387573
0.0283813
0.0213623
0.00762939
-0.0100708
0.0338745
0.0958252
0.109253
0.0863647
0.0341797
-0.0314331
-0.0537109
-0.00823975
0.0131226
-0.0387573
-0.0665283
0.010376
0.107727
0.114441
0.126038
0.0268555
-0.0686646
-0.09552
-0.0564575
0.032959
0.0164795
-0.0845337
-0.0946045
-0.020752
0.0289917
0.0558472
0.00518799
-0.0845337
-0.116577
-0.0216675
0.00274658
-0.0622559
-0.0991821
-0.0790405
-0.0268555
0.017395
0.0164795
0
0.038147
0.0918579
0.0888062
0.0891113
0.0643921
0.0167847
-0.0427246
-0.093689
-0.0888062
-0.0479126
0.032959
0.0689697
-0.0488281
-0.0952148
-0.0927734
-0.0335693
0.0570679
0.0738525
0.0668335
0.0378418
-0.00549316
-0.0192261
-0.00549316
-0.0177002
-0.0152588
-0.0100708
-0.0466919
-0.0585938
-0.0323486
0.0408936
0.120239
0.21698
0.270081
0.246277
0.195312
0.0747681
-0.0378418
-0.0860596
-0.102234
-0.0970459
-0.0460815
-0.0201416
-0.0448608
-0.067749
-0.0759888
-0.108337
-0.125427
-0.120239
-0.0323486
0.0811768
0.116272
0.0491333
-0.00732422
-0.027771
-0.0506592
-0.0326538
0.0238037
0.0585938
0.0814819
-0.00305176
-0.0726318
-0.0827026
0.00488281
0.0946045
0.133972
0.0900269
0.0842285
0.101929
0.132446
0.0946045
0.085144
0.065918
0.0622559
0.171509
0.256348
0.0674438
-0.159607
-0.236816
-0.262756
-0.287476
-0.252686
-0.203857
-0.13092
-0.0616455
-0.0424194
-0.0250244
0.017395
0.0158691
-0.010376
0.0119019
-0.00579834
-0.0439453
-0.0726318
-0.0668335
-0.0665283
-0.0952148
-0.100403
-0.0497437
0.00701904
0.0317383
-0.00244141
-0.0524902
-0.0906372
-0.0732422
-0.0650024
0.00488281
0.0927734
0.10498
0.0506592
0.0158691
0.0125122
-0.00946045
0.0152588
0.0457764
0.0839233
0.142517
0.105896
0.0695801
0.090332
0.136108
0.149841
0.148315
0.0698853
-0.0531006
-0.0704956
0.0344849
0.0997925
0.0717163
-0.0244141
-0.124207
-0.191956
-0.1651
-0.133362
-0.108948
-0.0656128
-0.00183105
0.0848389
0.177917
0.243835
0.272217
0.240784
0.112
-0.0119019
-0.0088501
0.083313
0.071106
-0.00610352
-0.0741577
-0.106812
-0.123596
-0.0811768
0
0.10437
0.186157
0.163879
0.0259399
-0.178528
-0.256653
-0.168152
-0.0350952
0.0576782
0.0518799
-0.0253296
-0.0604248
-0.0402832
-0.0302124
-0.0418091
-0.0875854
-0.167236
-0.205383
-0.0817871
0.0704956
0.055542
-0.0344849
-0.0863647
-0.06073
-0.0265503
-0.0698853
-0.0820923
-0.0354004
-0.00549316
0.0375366
0.0918579
0.149536
0.150146
0.0982666
0.0335693
-0.0512695
-0.129089
-0.131836
-0.106506
-0.0396729
0.00244141
0.0390625
0.123596
0.191345
0.258484
0.247498
0.170898
0.0720215
0.0405884
0.0320435
0.00610352
-0.0341797
-0.0354004
-0.0665283
-0.0671387
-0.0332642
0.0228882
0.00793457
0.0180054
-0.0149536
-0.0515747
-0.100403
-0.108337
-0.0564575
0.0439453
0.106812
0.124512
0.106201
0.0012207
-0.0268555
0.127869
0.239563
0.205994
0.0704956
-0.0820923
-0.137329
-0.131531
-0.0842285
-0.103455
-0.107117
-0.0656128
-0.0314331
-0.0238037
-0.0497437
-0.104675
-0.107727
-0.0646973
-0.00244141
0.0332642
0.0204468
-0.0131226
-0.0460815
-0.0717163
-0.0784302
-0.0640869
-0.0424194
0
0.0167847
-0.0177002
-0.0512695
-0.062561
-0.0534058
-0.065918
-0.055542
-0.0112915
0.0424194
0.13031
0.214844
0.205994
0.112
0.0286865
-0.0726318
-0.090332
-0.0643921
-0.020752
0.00823975
-0.0137329
-0.00366211
0.0210571
-0.0213623
-0.0411987
-0.00396729
0.0186157
-0.0283813
-0.0894165
-0.0912476
-0.0808716
-0.057373
-0.0430298
-0.0268555
0.0119019
0.0637817
0.078125
0.0701904
0.0448608
0.00579834
0.0228882
0.171509
0.21698
0.261536
0.243835
0.0213623
-0.179443
-0.244751
-0.281677
-0.24353
-0.188904
-0.172729
-0.112
-0.0335693
-0.0106812
-0.0305176
-0.0741577
-0.098877
-0.0924683
-0.00793457
0.0643921
0.0448608
-0.0115967
-0.0427246
-0.0653076
-0.0222778
0.0286865
0.0704956
0.09552
0.0643921
0.022583
0.000305176
0.0622559
0.226746
0.358582
0.326538
0.240173
0.0637817
-0.0622559
-0.0567627
-0.0289917
-0.0222778
-0.0796509
-0.14679
-0.157166
-0.102539
-0.0521851
-0.0473022
-0.0592041
-0.0314331
0.0534058
0.110779
0.113525
0.0631714
-0.0180054
-0.0415039
-0.039978
-0.0619507
-0.101013
-0.0695801
0.0183105
0.0848389
0.0582886
0.0778198
0.152588
0.209351
0.188293
0.0350952
-0.0842285
-0.0698853
-0.0616455
-0.0570679
-0.11261
-0.172729
-0.166321
-0.140686
-0.0796509
0.0466919
0.0753784
0.0402832
0.00946045
-0.0738525
-0.101318
-0.0866699
-0.0485229
0.0527954
0.132751
0.184021
0.172424
0.0408936
-0.162354
-0.331726
-0.404968
-0.409241
-0.281372
-0.0604248
0.117798
0.270081
0.266724
0.145264
0.022583
-0.0137329
-0.0332642
-0.0500488
-0.0305176
0.027771
0.0637817
0.0485229
-0.0119019
-0.0405884
-0.0186157
0.0640869
0.122375
0.0997925
0.0244141
-0.0448608
-0.0875854
-0.0744629
-0.0595093
-0.0372314
-0.0314331
-0.0259399
0.0109863
0.0354004
0.050354
0.0894165
0.112305
0.0875854
0.0619507
0.0262451
-0.0564575
-0.0820923
-0.0131226
0.0698853
0.101624
0.0622559
-0.0820923
-0.198364
-0.0930786
-0.0100708
0.0280762
0.0588989
0.0204468
-0.00610352
0
-0.0344849
-0.0375366
0.0256348
0.0759888
0.119629
0.112
-0.0289917
-0.167236
-0.261841
-0.274658
-0.167542
0.0485229
0.157776
0.159607
0.13092
0.0549316
0.015564
0.109863
0.231018
0.207214
0.098877
-0.100708
-0.296021
-0.256653
-0.124817
-0.0506592
-0.0350952
-0.0219727
-0.0259399
0.0192261
0.06073
0.0390625
0.00854492
-0.010376
-0.0421143
-0.0161743
0.0164795
0.0741577
0.101929
0.134277
0.125122
0.0509644
-0.010376
-0.050354
-0.0531006
-0.0213623
-0.0192261
-0.00762939
0.0137329
0.0463867
0.0857544
0.140076
0.108643
-0.0152588
-0.0802612
-0.139465
-0.139771
-0.093689
-0.0369263
0.0582886
0.126648
0.144653
0.107117
0.0402832
-0.0158691
-0.0231934
-0.0164795
0.0460815
0.0869751
0.104065
0.128784
0.0830078
0.0134277
-0.0164795
-0.105591
-0.155334
-0.102234
-0.0460815
0.00335693
0.0457764
0.0854492
0.0259399
-0.0436401
-0.101624
-0.124207
-0.0534058
-0.0534058
-0.140686
-0.209045
-0.156555
-0.0393677
0.123291
0.191956
0.17334
0.162964
0.144958
0.0164795
-0.0613403
-0.0653076
0.00671387
0.0900269
0.0796509
0.0106812
-0.050354
-0.0393677
-0.00732422
0.0244141
0.0787354
0.0796509
0.000610352
-0.0216675
-0.0689697
-0.148621
-0.115662
-0.010376
0.0241089
0.0604248
0.0939941
0.116272
0.101624
0.071106
-0.045166
-0.0939941
-0.0952148
-0.0662231
-0.0238037
0.00366211
0.020752
0.00152588
-0.0360107
-0.0244141
0.0350952
0.06073
0.0698853
0.0604248
0.00366211
-0.0640869
-0.0598145
-0.0180054
-0.0134277
-0.00213623
0.0161743
-0.0143433
-0.0354004
-0.0689697
-0.0848389
0.0335693
0.21698
0.274353
0.187988
0.0656128
-0.09552
-0.169983
-0.118103
-0.0195312
-0.0473022
-0.131531
-0.158997
-0.122681
0.0183105
0.10376
0.126648
0.12085
0.105896
0.117493
0.0930786
0.0689697
0.0930786
0.134888
0.0613403
-0.0372314
-0.112915
-0.159607
-0.108948
-0.0897217
-0.0454712
0.0619507
0.0961304
0.0436401
-0.0466919
-0.072937
-0.0842285
-0.146484
-0.162354
-0.141602
-0.0946045
0.0213623
0.12207
0.109863
0.0485229
0
-0.0146484
-0.0479126
-0.0518799
0.0234985
0.107727
0.155029
0.141296
0.0927734
-0.0546265
-0.113831
-0.0744629
-0.0512695
-0.0396729
-0.0415039
-0.0314331
0.00274658
0.0180054
-0.00244141
-0.0430298
-0.0561523
-0.0241089
-0.0366211
-0.0485229
-0.0479126
-0.0473022
-0.0106812
0.0564575
0.162354
0.205994
0.209045
0.157776
0.0363159
-0.0140381
-0.0518799
-0.0918579
-0.122986
-0.115967
-0.0613403
0.0564575
0.133972
0.155945
0.14801
0.130615
0.0863647
0.0289917
0.000305176
0.0201416
0.0933838
0.126038
0.107727
0.0582886
0.0741577
0.133972
0.179749
0.245667
0.228271
0.0900269
-0.0167847
-0.0469971
-0.071106
-0.0930786
-0.1651
-0.231323
-0.232849
-0.174561
-0.108032
-0.0305176
-0.0424194
-0.0646973
-0.0570679
-0.0436401
-0.0271606
-0.0088501
0.0106812
0.0933838
0.167236
0.180054
0.169983
0.0723267
-0.050354
-0.0643921
-0.0109863
0.0213623
0.00915527
-0.0164795
-0.0256348
-0.0384521
-0.0534058
-0.0747681
-0.0753784
-0.0820923
-0.0619507
-0.0360107
-0.0363159
-0.0402832
-0.0457764
-0.0543213
-0.0189209
-0.0253296
-0.0360107
-0.0158691
0.0192261
0.0668335
0.0759888
0.0927734
0.125732
0.136108
0.0634766
-0.032959
-0.0640869
-0.0756836
-0.0827026
-0.0924683
-0.108643
-0.0970459
-0.0512695
-0.00183105
0.0186157
0.00274658
0.0112915
0.039978
0.0646973
0.0549316
0.0119019
0.0112915
0.0152588
0.0765991
0.101929
0.0497437
0.0799561
0.0506592
0.00976562
0.039978
-0.00396729
-0.133057
-0.178528
-0.15686
-0.102539
-0.0378418
0.0790405
0.137329
0.194092
0.21698
0.169678
0.13916
0.0741577
-0.0418091
-0.134583
-0.172119
-0.126038
-0.050354
0.00823975
0.0543213
0.0817871
0.0866699
0.0991821
0.0494385
0.0244141
0.0137329
0.0289917
0.0378418
0.0506592
0.0772095
0.0863647
0.039978
-0.0106812
-0.020752
0.000915527
-0.00579834
-0.0390625
-0.0842285
-0.128479
-0.133667
-0.127258
-0.110779
-0.0457764
0.015564
0.0289917
0.0283813
0.00946045
-0.0286865
-0.0717163
-0.0732422
-0.0106812
0.125732
0.245667
0.296021
0.190125
-0.078125
-0.244141
-0.186462
-0.0161743
0.136108
0.162048
0.111389
0.045166
0.0427246
0.0888062
0.0717163
-0.062561
-0.107727
-0.012207
0.0241089
-0.00274658
-0.0396729
-0.0466919
-0.0900269
-0.159607
-0.176086
-0.124817
-0.0210571
0.032959
0.0250244
-0.0201416
0.012207
0.0378418
0.0286865
0.0463867
0.0686646
0.0643921
0.0549316
0.0646973
0.0485229
0.0213623
0.0192261
0.0680542
0.118408
0.131531
0.121155
0.108337
0.0909424
0.0869751
0.0512695
0.039978
0.0686646
0.0796509
0.038147
-0.0210571
-0.0592041
-0.0723267
-0.072937
-0.0100708
0.0939941
0.101318
0.121765
0.0521851
-0.0289917
-0.00946045
0.115356
0.197754
0.20813
0.108032
-0.0534058
-0.114441
-0.0518799
0.0549316
0.145264
0.257874
0.182495
-0.0012207
-0.148926
-0.346985
-0.427856
-0.367737
-0.109863
0.115967
0.198059
0.115967
0.0524902
-0.0442505
-0.101624
-0.121765
-0.120239
-0.0723267
-0.0241089
0.0509644
0.071106
0.022583
0.0283813
0.0177002
-0.0393677
-0.0537109
-0.0823975
-0.098877
-0.067749
-0.00610352
0.0216675
-0.00366211
0.00152588
-0.0524902
-0.0158691
0.039978
0.050354
0.0720215
0.113525
0.221863
0.359802
0.484619
0.520325
0.440369
0.242615
-0.00946045
-0.245056
-0.376282
-0.370483
-0.227661
0.0201416
0.11322
0.135803
0.213623
0.173645
-0.0241089
-0.17334
-0.15625
0.0109863
0.0701904
0.0765991
0.11322
0.00457764
-0.121765
-0.184631
-0.209961
-0.164795
0.0012207
0.0927734
0.0421143
-0.0576782
-0.204773
-0.202637
0.0967407
0.26062
0.143127
0.0704956
-0.0231934
0.0286865
0.0680542
0.184937
0.379333
0.541382
0.612793
0.563049
0.323792
0.142822
0.13092
0.133667
0.0802612
-0.00946045
-0.140686
-0.239258
-0.169678
0.137024
0.3479
0.457458
0.45166
0.236206
0.0390625
-0.0268555
0.00671387
-0.0460815
0
0.158081
0.304871
0.35553
0.372009
0.272522
0.132141
-0.0186157
-0.0747681
-0.0128174
0.0891113
0.194092
0.415955
0.559082
0.66925
0.700073
0.545959
0.35553
0.254211
0.0289917
-0.127258
-0.201416
-0.188904
-0.137024
-0.0161743
0.0848389
0.098877
-0.0527954
-0.227661
-0.243835
-0.115967
0.0387573
-0.032959
-0.0811768
-0.245667
-0.337524
-0.398254
-0.413208
-0.320435
-0.151672
-0.110779
-0.149536
-0.170898
-0.174561
-0.110779
0.0442505
0.162964
0.140686
0.249023
0.279541
0.114136
-0.0177002
-0.189209
-0.285645
-0.297546
-0.206604
-0.0283813
0.11261
0.175171
0.118408
-0.0378418
-0.139465
-0.251465
-0.30304
-0.342712
-0.51178
-0.613708
-0.609741
-0.404358
-0.158997
0.0509644
0.116882
-0.0579834
-0.26947
-0.297546
-0.218201
-0.175476
-0.0964355
0.0469971
0.0320435
-0.00671387
-0.264282
-0.524292
-0.552368
-0.405273
-0.229187
-0.0115967
0.098877
0.085144
0.162048
0.0671387
-0.118713
-0.113831
-0.0845337
-0.115356
-0.188293
-0.243835
-0.195312
-0.175171
-0.247192
-0.36438
-0.450134
-0.420837
-0.278931
-0.022583
0.155945
0.14801
0.0991821
0.00427246
-0.0421143
-0.0854492
-0.177917
-0.307312
-0.152283
0.231323
0.565186
0.553284
0.239563
-0.0857544
-0.218811
-0.224304
-0.0631714
0.0881958
0.191345
0.250549
0.0588989
-0.343323
-0.641479
-0.626526
-0.361328
-0.218506
-0.219116
-0.298157
-0.334473
-0.26825
-0.0421143
0.135193
0.160828
0.0704956
0.0115967
-0.0595093
-0.0549316
-0.0949097
-0.201416
-0.197144
-0.11261
-0.0750732
-0.178528
-0.193481
-0.0527954
0.0515747
-0.0106812
-0.180054
-0.281067
-0.263977
-0.0994873
0.196228
0.378723
0.473938
0.333252
-0.0769043
-0.353699
-0.387878
-0.281677
0
0.176086
0.13031
-0.0390625
-0.247498
-0.386047
-0.463257
-0.393677
-0.176086
-0.00579834
0.16571
0.3125
0.175476
-0.0186157
-0.173035
-0.163879
-0.0634766
0
0.00427246
-0.0228882
-0.0338745
-0.0119019
0.0375366
0.0427246
0.0390625
0.017395
0.108337
0.126038
0.0906372
0.0164795
-0.09552
-0.228577
-0.142517
0.14801
0.45929
0.66864
0.464478
0.0524902
-0.227661
-0.241394
-0.0219727
0.19989
0.126343
-0.0582886
-0.295105
-0.420532
-0.349731
-0.253296
-0.0918579
0.137329
0.292053
0.393066
0.409851
0.245667
0.0326538
-0.0375366
-0.0192261
-0.0421143
-0.0695801
-0.0598145
0.0140381
0.0912476
0.152893
0.168457
0.153503
0.106506
0.00946045
-0.0726318
-0.0427246
0.00274658
-0.0421143
-0.0820923
-0.0823975
-0.0268555
-0.00762939
0.138855
0.382385
0.516968
0.595703
0.627136
0.437317
0.261536
0.375671
0.298157
-0.0335693
-0.361328
-0.47699
-0.406189
-0.162659
0.0643921
0.141602
0.306396
0.229492
0.0253296
-0.118103
-0.123596
0.0250244
0.13092
0.146179
0.0350952
-0.0360107
-0.115356
-0.158997
-0.154114
-0.139771
-0.118103
0.0125122
0.0939941
0.0201416
-0.117798
-0.143433
-0.0418091
0.0323486
0.134888
0.228577
0.280762
0.314331
0.301514
0.259094
0.212402
0.102844
0.090332
0.187683
0.236511
0.172729
-0.0466919
-0.176086
-0.139771
-0.134583
-0.132446
-0.0942993
0.0338745
0.18158
0.289001
0.214539
-0.00823975
-0.195007
-0.22583
-0.246582
-0.128174
-0.0146484
0.0198364
0.00396729
0.0390625
0.128784
0.1651
0.200195
0.238037
0.113525
-0.0396729
-0.0720215
-0.0357056
0.0256348
0.0692749
0.116577
0.0958252
0.000610352
-0.0418091
-0.0595093
-0.0198364
0.0918579
0.202942
0.219727
0.144348
0.0540161
0.0445557
0.067749
0.158386
0.122986
-0.119934
-0.223694
-0.161743
-0.0741577
-0.0189209
0.062561
0.145874
0.172729
0.104675
-0.03479
-0.101318
0.0164795
0.141907
0.0915527
-0.0274658
-0.06073
-0.098877
-0.045166
0.085144
0.220947
0.305481
0.183105
0.012207
-0.0100708
-0.0268555
-0.0827026
-0.0357056
-0.00274658
0.0350952
0.0662231
0.0375366
0.00732422
-0.0177002
-0.00701904
0.027771
0.027771
-0.0125122
-0.085144
-0.043335
0.113525
0.388489
0.444641
0.255737
0.0372314
-0.00396729
-0.0708008
-0.0991821
-0.143433
-0.166321
-0.113525
-0.0283813
0.0598145
0.170898
0.244446
0.243835
0.155334
0.0396729
-0.0985718
-0.204773
-0.151062
0.00946045
0.0946045
0.0921631
0.0445557
-0.050354
-0.0827026
-0.0360107
0.0460815
0.0927734
0.0894165
0.0201416
0.0289917
0.0616455
0.0964355
0.0613403
-0.0222778
-0.098877
-0.161743
-0.11261
-0.0631714
0
0.0595093
0.0793457
0.120544
0.220032
0.325317
0.386963
0.341492
0.125122
-0.129089
-0.215454
-0.26001
-0.284119
-0.234985
-0.144958
-0.00335693
0.0830078
0.134888
0.123596
0.0466919
-0.0302124
0.0149536
0.0878906
0.0262451
0.00701904
0.0289917
0.0469971
-0.00549316
-0.0469971
-0.0628662
-0.0875854
-0.105896
-0.0616455
0.0814819
0.296936
0.388489
0.310364
0.116272
-0.0268555
-0.093689
-0.0354004
0.0125122
0.0546265
0.0939941
0.143738
0.129089
0.0598145
-0.0286865
-0.0723267
-0.0393677
0.00946045
0.0390625
-0.022583
0.0350952
0.116272
0.0735474
-0.0524902
-0.148621
-0.10376
0.111389
0.241394
0.296631
0.227966
0.0778198
-0.133972
-0.260315
-0.332642
-0.33905
-0.226746
-0.0723267
0.0369263
0.0546265
-0.0283813
-0.0421143
0.0686646
0.12085
0.117798
0.0289917
-0.0784302
-0.125427
-0.0814819
0.0256348
0.192566
0.377197
0.469971
0.484619
0.398865
0.129395
-0.143127
-0.281067
-0.34729
-0.309448
-0.221252
-0.177612
-0.10498
0.0131226
0.0970459
0.117493
0.0619507
0.0769043
0.0683594
0.0192261
0.00610352
0.0457764
0.105286
0.170593
0.110168
0.022583
-0.0149536
-0.100403
-0.126648
-0.0546265
-0.0387573
-0.0161743
-0.0689697
-0.274353
-0.360413
-0.312805
-0.098877
0.0839233
0.179749
0.0863647
0.0146484
0.0363159
0.062561
0.0775146
-0.0247192
-0.0634766
-0.0628662
-0.0802612
-0.00427246
0.105896
0.216064
0.270386
0.198975
0.0595093
0.0140381
0.0256348
0.135193
0.207825
0.274658
0.197449
0.105591
-0.00305176
-0.0866699
-0.129089
-0.113525
-0.119934
-0.134888
-0.0991821
-0.0836182
-0.105286
-0.107727
-0.0698853
0.0253296
0.169983
0.314636
0.328369
0.301819
0.171509
-0.119934
-0.473633
-0.637207
-0.552063
-0.351868
-0.153198
0.0570679
0.253601
0.250549
0.115662
0.0158691
-0.020752
-0.0292969
-0.00946045
0.00366211
0.0704956
0.0866699
0.03479
0.105896
0.168762
0.106201
0.0610352
-0.0454712
-0.104065
-0.158386
-0.195618
-0.178528
-0.107727
0.0448608
0.162659
0.235291
0.119324
-0.125427
-0.299377
-0.297241
-0.231934
-0.162354
-0.0253296
0.119324
0.187378
0.180969
0.174255
0.0952148
0.0372314
0.0360107
0.0912476
0.144348
0.104065
-0.0299072
-0.168152
-0.25177
-0.254517
-0.166931
-0.0634766
-0.0735474
-0.0854492
-0.0933838
-0.0900269
-0.119934
-0.235291
-0.25116
-0.190125
-0.101929
-0.0305176
0.0674438
0.209045
0.176697
0.137634
0.126343
-0.0265503
-0.101013
-0.0979614
-0.0845337
-0.0421143
-0.0262451
-0.0137329
-0.0296021
0.0204468
0.055542
0.0289917
-0.0756836
-0.102234
-0.117493
-0.0338745
0.0134277
0
0.0106812
-0.0585938
-0.0930786
-0.0613403
0.055542
0.207214
0.14801
0.0613403
0.00976562
-0.0576782
-0.0473022
-0.0646973
-0.191956
-0.179749
-0.122986
-0.145874
-0.133362
-0.262451
-0.432129
-0.356445
-0.102539
0.122986
0.180359
0.152893
0.134583
0.138855
0.0411987
-0.0463867
-0.00762939
0.0363159
0.0317383
0.00366211
-0.0158691
-0.0421143
-0.0534058
0.00518799
0.017395
0.0320435
0.00549316
-0.0643921
-0.015564
0.0610352
0.0314331
0.0387573
0.0674438
0.0265503
0.132446
0.289917
0.304871
0.220947
0.00335693
-0.162659
-0.143433
-0.0469971
0.133057
0.257874
0.196533
0.050354
-0.0762939
-0.103455
-0.0241089
0.020752
-0.093689
-0.261536
-0.278625
-0.158997
-0.122986
-0.119324
-0.0958252
0.038147
0.184021
0.269775
0.197449
0.0354004
-0.0442505
-0.0448608
-0.0430298
-0.0256348
-0.00213623
0.0875854
0.184021
0.177917
0.163269
0.200195
0.283508
0.206299
-0.0289917
-0.154724
-0.162659
-0.0836182
0.015564
0.0857544
0.13031
0.119019
0.0744629
0.0619507
0.180054
0.284424
0.192566
-0.050354
-0.384827
-0.420837
-0.19928
-0.022583
0.0375366
0.0888062
0.123596
0.138855
0.123596
0.132751
0.142517
0.0692749
-0.039978
-0.0744629
-0.0817871
-0.0869751
-0.0918579
-0.0744629
-0.00762939
0.0680542
0.0668335
-0.0100708
-0.0164795
0.0378418
0.0946045
0.138855
0.140991
0.106812
0.127869
0.187683
0.172729
0.115051
0.0518799
0.027771
0.0268555
0.136719
0.152283
0.0378418
-0.00762939
0.0289917
0.13031
0.249023
0.228271
0.140991
-0.00213623
-0.125732
-0.12146
-0.0518799
-0.0137329
0.00701904
0.111084
0.265198
0.312195
0.245361
0.0350952
-0.101318
-0.136719
-0.0598145
-0.0463867
-0.117188
-0.11322
-0.154724
-0.166931
-0.110168
0.027771
0.191345
0.295715
0.329285
0.254822
0.0808716
-0.0646973
-0.137634
-0.14801
0.0137329
0.148315
0.255127
0.259399
0.134583
0.017395
-0.0521851
-0.0689697
-0.057373
-0.0811768
-0.0665283
-0.0375366
-0.00579834
0.0164795
0.0177002
0.0588989
0.0912476
0.0970459
0.111084
0.137939
0.107117
0.0735474
0.0912476
0.0363159
-0.0820923
-0.109253
0.0186157
0.150146
0.152283
0.0857544
0.00610352
-0.0469971
0.0305176
0.0753784
0.0131226
-0.0546265
-0.0875854
-0.144043
-0.134888
-0.0784302
0.062561
0.239563
0.232849
0.0662231
-0.0698853
-0.0512695
-0.0698853
-0.0912476
-0.0726318
-0.0656128
-0.0808716
-0.0689697
-0.0280762
0.0326538
0.0845337
0.0701904
-0.00579834
-0.105896
-0.14679
-0.139771
-0.109558
-0.0772095
-0.0088501
0.0595093
0.120544
0.119934
0.0790405
0.00152588
0.00946045
0.0595093
0.0439453
-0.0497437
-0.141602
-0.122681
-0.0253296
0.0326538
0.0378418
0.152588
0.233154
0.229492
0.162964
0.00396729
-0.0958252
-0.0640869
0.0518799
0.163269
0.184326
0.136414
0.209961
0.226135
0.170593
0.0183105
-0.15564
-0.177002
-0.150452
-0.194702
-0.196838
-0.176392
-0.198975
-0.148926
0.0619507
0.24292
0.295105
0.253601
0.124207
0.0753784
0.0680542
0.0088501
-0.0613403
-0.0405884
0.0204468
0.00946045
-0.0457764
-0.104065
-0.141296
-0.169067
-0.161743
-0.141296
-0.0567627
0.0457764
0.0592041
-0.038147
-0.100403
-0.118713
-0.146484
-0.239868
-0.187378
-0.0979614
-0.090332
0.0143433
0.104675
0.159302
0.149841
0.136414
0.105591
0.0875854
0.0732422
0.0604248
0.0314331
-0.0100708
-0.0119019
-0.0387573
-0.06073
-0.0442505
-0.0430298
-0.0759888
-0.0213623
0.00457764
0.0375366
0.125427
0.0888062
0.0674438
0.0546265
-0.0415039
-0.0592041
-0.0369263
-0.0265503
-0.0305176
-0.0280762
-0.0137329
-0.0219727
0.0439453
0.108337
0.121155
0.10376
-0.0253296
-0.108643
-0.105591
-0.0564575
0.0668335
0.101013
0.0695801
-0.00671387
-0.0683594
0.00366211
0.0765991
0.0805664
0.0875854
0.0540161
0.0131226
0.0100708
-0.0100708
-0.0631714
-0.0695801
-0.0177002
0.022583
-0.0323486
-0.0967407
-0.136108
-0.141602
-0.127258
-0.101318
-0.0552368
0.0805664
0.179749
0.162048
0.0750732
-0.0442505
-0.0286865
0.012207
-0.0469971
-0.162354
-0.263672
-0.258789
-0.199585
-0.131836
-0.0457764
0.0750732
0.10376
-0.0125122
-0.0872803
-0.128479
-0.157166
-0.151367
0.0140381
0.207825
0.295105
0.240479
0.117798
0.0372314
0.00427246
0.0524902
0.10498
0.173035
0.144958
0.06073
-0.0601196
-0.177002
-0.122986
0.0674438
0.19043
0.202332
0.120239
-0.0735474
-0.240479
-0.203247
-0.0842285
-0.0231934
0.0164795
-0.00793457
-0.0662231
-0.0891113
-0.0390625
0.0720215
0.192566
0.265198
0.222778
-0.00152588
-0.151062
-0.143127
-0.135498
-0.0665283
0.00274658
0.0149536
-0.0515747
-0.0997925
-0.133057
-0.150146
-0.151367
-0.12146
-0.15564
-0.204773
-0.221558
-0.186462
-0.106201
0.00427246
0.0634766
0.0686646
0.0979614
0.125427
0.113525
0.131226
0.168152
0.215759
0.222473
0.123596
0.0845337
0.103455
0.085144
0.0231934
-0.141602
-0.260315
-0.206909
-0.104065
0.00396729
0.093689
0.129089
0.100403
0.0405884
-0.0219727
0.0180054
0.0961304
0.137939
0.116882
0.107117
0.141296
0.19104
0.111084
-0.0512695
-0.179443
-0.219727
-0.193481
-0.201721
-0.1474
-0.0234985
0.108643
0.187378
0.151062
0.0653076
-0.0256348
-0.141907
-0.167542
-0.0769043
0.0424194
0.16571
0.192261
0.100708
-0.0857544
-0.343018
-0.353699
-0.0973511
0.212097
0.326233
0.263977
0.165405
0.100708
0.0900269
0.0299072
-0.0549316
-0.0588989
-0.0714111
-0.13092
-0.137329
-0.152588
-0.193481
-0.166321
-0.090332
-0.0274658
0.0360107
0.0482178
-0.0445557
-0.101013
-0.0384521
0.0222778
0.0915527
0.0811768
0.0375366
-0.0143433
0.0134277
0.0427246
0.0314331
0.0115967
-0.0323486
0.0152588
0.153503
0.232239
0.171814
0.0616455
-0.0436401
-0.119934
-0.0872803
-0.0332642
-0.0128174
-0.0384521
-0.0793457
-0.150146
-0.176697
-0.19165
-0.156555
-0.067749
0.0317383
0.123291
0.186157
0.0552368
-0.0628662
-0.0906372
-0.100403
-0.101929
-0.0698853
-0.0509644
0.0488281
0.131226
0.136108
0.0790405
0.0164795
-0.0418091
-0.0338745
-0.0119019
0.0473022
0.111694
0.0891113
0.0509644
0.0137329
-0.0741577
-0.0747681
0.0680542
0.0601196
-0.0930786
-0.11261
-0.00213623
0.0830078
0.101318
0.093689
0.0640869
0.0161743
-0.039978
0.00946045
0.0720215
0.050354
0.0167847
-0.0396729
-0.0735474
-0.088501
-0.022583
0.0759888
0.119934
0.0912476
-0.027771
-0.154114
-0.212402
-0.183105
-0.119629
-0.0540161
-0.116272
-0.210266
-0.263672
-0.284729
-0.194702
0.0445557
0.186462
0.163879
0.133972
0.162048
0.172729
0.123291
0.0164795
-0.00793457
0.027771
0.0286865
-0.0195312
-0.00274658
0.0750732
0.167847
0.258179
0.240784
0.133362
0.0494385
-0.0765991
-0.172424
-0.105591
0.078125
0.215149
0.248413
0.163269
0.0924683
-0.0631714
-0.215454
-0.247803
-0.191345
-0.191345
-0.12207
-0.0531006
-0.0494385
-0.0247192
-0.0088501
-0.00854492
-0.017395
-0.0665283
-0.120544
-0.121155
-0.0991821
-0.0726318
-0.0479126
-0.0247192
-0.0137329
0.00396729
0.0875854
0.153198
0.241089
0.314636
0.26062
0.132751
0.0650024
-0.0308228
-0.170288
-0.20874
-0.158081
-0.0384521
0.043335
0.0161743
-0.0460815
0.017395
0.0610352
0.045166
-0.0442505
-0.121765
-0.125122
-0.0805664
0.0119019
0.0872803
0.0985718
0.13855
0.231018
0.289001
0.228577
0.112305
-0.0180054
-0.0949097
-0.0958252
-0.0411987
-0.00854492
-0.0405884
-0.0598145
-0.0485229
-0.0466919
-0.00610352
-0.0186157
-0.015564
0.020752
0.0378418
0.0439453
0.067749
0.065918
0.112915
0.100708
0.0622559
-0.0192261
-0.119629
-0.183411
-0.242615
-0.250549
-0.234375
-0.148315
-0.0296021
0.0808716
0.0723267
0.0012207
0.0268555
0.00427246
-0.0247192
0.0128174
0.0366211
0.0448608
0.0411987
-0.0106812
0.0476074
0.142822
0.129089
0.114441
0.067749
-0.0186157
-0.0497437
-0.00396729
0.0415039
0.0442505
0.0088501
-0.0271606
0.0228882
0.0924683
0.115662
0.0634766
-0.0875854
-0.176086
-0.109253
-0.0158691
0.0158691
0.06073
0.0253296
-0.0527954
-0.0595093
-0.0326538
0.0115967
-0.022583
0.03479
0.116882
0.107422
0.039978
-0.0610352
-0.157471
-0.0982666
-0.0112915
0.0595093
0.0924683
0.0210571
-0.0942993
-0.113831
-0.0537109
0.032959
0.0863647
0.119934
0.150452
0.125732
0.00823975
-0.0650024
-0.0958252
-0.0891113
-0.03479
0.0311279
0.00549316
-0.102844
-0.0595093
0.0189209
0.0390625
0.0634766
0.0997925
0.0796509
0.0634766
0.0540161
-0.00518799
-0.00152588
0.0628662
0.06073
0.0164795
0.0119019
-0.00579834
-0.0500488
-0.0726318
-0.0769043
-0.0793457
-0.0613403
-0.0308228
0.00915527
0.0445557
0.123291
0.0994873
-0.0387573
-0.146484
-0.141602
-0.055542
0.0585938
0.0994873
0.0299072
-0.0708008
-0.0537109
0.0112915
0.0723267
0.085144
0.0698853
-0.0637817
-0.156555
-0.171204
-0.136414
-0.0158691
0.0485229
0.0653076
0.101318
0.102539
0.0491333
-0.00457764
-0.0546265
-0.039978
0.0262451
0.115662
0.173035
0.201111
0.224304
0.154724
-0.0256348
-0.0445557
0.0262451
0.0506592
0.0219727
0.0152588
0
-0.0268555
-0.0256348
0.0125122
0.114746
0.22644
0.281677
0.197144
0.00305176
-0.116577
-0.162354
-0.166321
-0.178833
-0.14679
-0.0811768
0.0189209
0.117493
0.170898
0.135498
0.0350952
-0.0546265
-0.104675
-0.0784302
-0.0463867
-0.010376
-0.0241089
-0.0637817
-0.0543213
-0.0241089
0.0360107
0.0784302
0.0485229
0.0204468
0.0335693
0.0537109
0.104065
0.0949097
0.0524902
-0.0253296
-0.0918579
-0.110779
-0.0491333
0.00793457
0.0521851
0.0793457
0.0476074
-0.0637817
-0.108337
-0.0442505
0.0830078
0.176086
0.192871
0.130005
0.0942993
0.0289917
-0.0170898
-0.0765991
-0.108032
-0.0820923
0.0338745
0.213318
0.389709
0.475769
0.509644
0.235596
-0.172424
-0.333252
-0.335999
-0.326233
-0.289612
-0.194092
-0.027771
0.0875854
0.0695801
0.015564
-0.00488281
0.0302124
0.0695801
0.0775146
0.0857544
0.0918579
0.0479126
0.00274658
-0.0164795
-0.0241089
-0.0274658
-0.0292969
-0.0256348
-0.0234985
-0.00701904
0.0213623
0.0869751
0.12146
0.12207
0.109863
0.0442505
-0.110168
-0.183411
-0.158081
-0.0906372
0.0164795
0.0891113
0.0930786
0.0509644
-0.00854492
-0.0561523
-0.0500488
-0.0115967
0.00366211
0.00976562
-0.0436401
-0.0796509
0.00640869
0.0119019
0.0131226
0.0802612
0.158997
0.116577
0.0701904
0.0524902
0.0823975
0.0997925
0.062561
0.0485229
0.0598145
0.117798
0.258179
0.371704
0.277405
0.130615
-0.0332642
-0.25177
-0.274048
-0.209656
-0.165405
-0.161438
-0.160828
-0.0927734
0.0222778
0.0942993
0.109558
0.0369263
0.0213623
0.117493
0.138855
0.098877
0.0534058
-0.0567627
-0.153503
-0.204163
-0.171814
-0.107422
-0.103149
-0.0646973
0.0213623
0.0500488
0.0473022
0.00396729
-0.0161743
0.00823975
0.0280762
0.0704956
0.13031
0.176086
0.200195
0.194702
0.100098
-0.0134277
-0.0860596
-0.100708
-0.105286
-0.0872803
-0.0653076
-0.0375366
-0.0463867
-0.0698853
-0.0656128
-0.0323486
0.00396729
-0.00396729
0.000305176
-0.00244141
-0.0271606
-0.0250244
0.085144
0.135498
0.0271606
-0.160217
-0.251465
-0.223389
-0.162659
0.0143433
0.128784
0.0906372
0.0720215
0.0973511
0.112
0.101624
0.0683594
0.050354
0.0393677
0.0759888
0.0875854
0.0619507
0.0311279
-0.0686646
-0.0814819
0.000305176
0.06073
0.101929
0.12207
0.100098
0.071106
0.0689697
0.038147
-0.0479126
-0.153198
-0.195312
-0.19104
-0.213013
-0.20874
-0.117188
-0.0579834
-0.0714111
-0.0427246
-0.0332642
0.0119019
0.100708
0.159302
0.1474
0.101318
-0.0222778
-0.122375
-0.116272
-0.102234
-0.101624
-0.100708
-0.0912476
-0.0674438
-0.0119019
0.0643921
0.0857544
0.0552368
0.0204468
0.0216675
0.12146
0.176392
0.147095
0.0167847
-0.162964
-0.273743
-0.220642
-0.112915
-0.0335693
0.00335693
-0.00732422
-0.0579834
-0.0881958
-0.105286
-0.116577
-0.0930786
-0.0674438
-0.0354004
0.0396729
0.0793457
0.120544
0.157471
0.145264
0.0192261
-0.117493
-0.180664
-0.229797
-0.222778
-0.119934
-0.174866
-0.212097
-0.166931
0.0546265
0.188293
0.201721
0.161743
0.126343
0.172729
0.180969
0.155029
0.090332
-0.083313
-0.234985
-0.169067
-0.0369263
0.0186157
0.127258
0.172729
0.0772095
0.0247192
0.00396729
-0.0524902
-0.0765991
-0.0643921
-0.0463867
-0.0158691
0.0326538
0.0579834
0.0906372
0.0930786
0.0485229
0.0668335
0.00610352
-0.0906372
-0.09552
-0.0991821
-0.0918579
-0.0354004
-0.00396729
-0.00366211
-0.000915527
-0.0424194
-0.0601196
-0.0396729
-0.0234985
-0.0439453
-0.0271606
0.017395
0.00823975
0.00152588
0.0204468
0.0167847
-0.0268555
-0.0332642
0.012207
0.0088501
-0.00762939
-0.00640869
0.0115967
0.0247192
0.071106
0.190125
0.240784
0.137329
0.0640869
0.0204468
-0.108032
-0.159302
-0.128174
-0.078125
-0.0543213
0.00457764
0.0250244
0.0384521
0.0375366
0.0662231
0.0918579
0.0683594
0.057373
0.0817871
0.0387573
0.00823975
0.0521851
0.107117
0.151062
0.143127
0.0830078
0.012207
0.0369263
0.0537109
-0.0262451
-0.129089
-0.182495
-0.174561
-0.126648
-0.108337
-0.114136
-0.126953
-0.0939941
-0.0466919
0.038147
0.0765991
0.057373
0.0463867
0.0564575
0.0918579
0.0732422
0.0436401
0.0357056
0.0250244
0.0418091
0.0570679
0.0604248
0.0180054
-0.039978
-0.0695801
-0.0296021
0.00640869
0.0448608
0.0164795
-0.00762939
-0.0158691
-0.0115967
0.0485229
-0.00274658
-0.0759888
-0.21759
-0.237427
-0.0942993
0.00244141
0.00305176
-0.0613403
-0.128479
-0.129089
0.0140381
0.108643
0.10376
0.0393677
0.0457764
0.0732422
0.119629
0.12146
0.0912476
0.057373
0.0222778
0.027771
0.0534058
0.100403
0.177917
0.189209
0.158691
0.123901
0.12085
0.107727
0.0500488
0.0186157
-0.0875854
-0.144348
-0.0869751
-0.0286865
-0.0192261
-0.0448608
-0.032959
0.00915527
0.0918579
0.0360107
-0.0216675
-0.0717163
-0.0994873
0.00366211
0.0643921
0.0704956
0.0860596
0.110474
0.093689
0.0759888
0.0643921
0.0234985
-0.0314331
-0.0479126
-0.032959
-0.0476074
-0.03479
0.0259399
0.112
0.071106
0.012207
-0.0982666
-0.205383
-0.186157
-0.0827026
0.0366211
0.105591
0.152588
0.159912
0.0970459
-0.038147
-0.105591
-0.1297
-0.192261
-0.217896
-0.0469971
0.162354
0.204773
0.187988
0.159912
0.11322
0.128784
0.149841
0.0891113
0.0668335
0.0512695
0.0299072
0.0588989
0.0616455
0.0668335
0.0939941
0.118713
0.110474
0.055542
-0.0250244
-0.0909424
-0.0875854
-0.0564575
-0.0662231
-0.0958252
-0.119019
-0.101624
-0.0863647
-0.0466919
-0.0161743
0.0149536
0.0204468
0.0320435
0.0588989
0.126648
0.13031
0.0796509
-0.0366211
-0.141296
-0.142212
-0.0567627
0.038147
0.136414
0.0994873
0.0088501
-0.0646973
-0.0802612
-0.0622559
-0.0494385
-0.0354004
-0.0350952
-0.0585938
-0.057373
-0.0466919
-0.0415039
-0.0311279
-0.0262451
-0.0424194
-0.0939941
-0.125122
-0.146179
-0.105591
-0.0457764
0.0250244
0.0726318
0.0784302
0.083313
0.0985718
0.0692749
0
-0.0140381
-0.0396729
-0.0527954
-0.0561523
-0.0640869
-0.0732422
-0.0570679
-0.0427246
0.0216675
0.098877
0.152588
0.180664
0.163879
0.0970459
0.125427
0.146179
0.178528
0.176086
0.0704956
-0.117493
-0.247803
-0.26001
-0.194702
-0.195312
-0.1828
-0.1474
-0.0613403
0.0186157
0.0921631
0.0863647
0.0427246
0.0250244
-0.010376
-0.0195312
0.00183105
0.0427246
0.078125
0.150146
0.240784
0.2005
0.0323486
-0.0900269
-0.0842285
-0.0704956
-0.0537109
0.0164795
0.0686646
0.0424194
-0.015564
-0.0759888
-0.124207
-0.0952148
-0.0268555
0.0119019
0.00183105
-0.0198364
-0.0283813
-0.0326538
-0.0112915
0.0183105
-0.0482178
-0.050354
-0.0521851
-0.0311279
-0.00274658
0.0131226
0.0534058
0.101318
0.172729
0.175171
0.126038
0.0372314
-0.0686646
-0.0967407
-0.0765991
-0.00854492
0.0131226
0.0357056
0.0482178
0.110474
0.160217
0.151978
0.157471
0.155945
0.103149
0.0653076
0.0390625
-0.0241089
-0.106506
-0.140686
-0.164185
-0.139465
-0.0753784
0.0286865
0.13916
0.148621
0.0802612
0.062561
0.0918579
0.109253
0.111694
0.106506
0.0775146
0.06073
0.0588989
0.0405884
-0.0726318
-0.169983
-0.21698
-0.139465
0.0436401
0.121765
0.110779
0.0366211
-0.06073
-0.134888
-0.0692749
-0.00274658
0.107117
0.101929
-0.00305176
-0.114746
-0.114441
-0.0219727
0.0857544
0.11322
0.105286
0.122986
0.1297
0.111084
0.111084
0.0863647
0.0344849
-0.0192261
-0.0601196
-0.0708008
-0.071106
-0.0317383
-0.0100708
0.00152588
0.0314331
0.0427246
0.0485229
0.0253296
0.0296021
0.0213623
-0.0131226
-0.0167847
-0.0332642
-0.012207
0.0360107
0.0430298
0.0265503
0.0375366
0.0109863
-0.0271606
0.0289917
0.143433
0.118103
0.06073
0.045166
0.015564
-0.0088501
-0.00305176
0.00396729
0.0158691
-0.00305176
0.00305176
0.00274658
0.0204468
0.0784302
0.123291
0.154419
0.0973511
0.0521851
0
-0.0167847
-0.0473022
-0.0570679
-0.0448608
-0.0521851
-0.0793457
-0.0741577
-0.0341797
0.0366211
0.0976562
0.113831
0.123291
0.0778198
0.0418091
0.0308228
-0.0436401
-0.115967
-0.126343
-0.0842285
-0.0567627
-0.0158691
0.0164795
0.0518799
0.0476074
-0.0256348
-0.0830078
-0.115051
-0.126038
-0.0805664
0.00946045
0.0927734
0.10498
0.0961304
0.0643921
0
-0.0830078
-0.0942993
-0.137024
-0.222778
-0.169067
-0.039978
0.0289917
0.0253296
0.0128174
-0.00244141
-0.0430298
-0.0741577
-0.102844
-0.113831
-0.0842285
-0.0238037
0.0119019
0.0134277
0.00549316
-0.00488281
-0.0198364
-0.00488281
-0.0198364
-0.0283813
-0.00732422
0.00732422
0.0332642
0.0524902
0.0595093
0.0332642
0.00732422
0.000915527
0.0088501
0.0189209
0.0109863
-0.0320435
-0.0927734
-0.125122
-0.101929
-0.0808716
-0.0534058
-0.0820923
-0.121765
-0.137939
-0.158997
-0.130615
-0.0570679
-0.00946045
0.0186157
0.0250244
0.0137329
0.00183105
-0.00366211
-0.0164795
-0.0170898
-0.0186157
-0.0088501
-0.0115967
0.0268555
0.06073
0.0750732
0.0466919
-0.0357056
-0.0769043
-0.0750732
-0.00518799
0.0942993
0.111389
0.06073
-0.0341797
-0.158386
-0.184631
-0.10376
-0.0326538
-0.0247192
-0.038147
-0.0979614
-0.119934
-0.114441
-0.108032
-0.132446
-0.144043
-0.130615
-0.0927734
-0.0485229
-0.0238037
-0.00396729
-0.0161743
-0.032959
-0.039978
-0.0256348
-0.0170898
-0.0561523
-0.090332
-0.12207
-0.138855
-0.133972
-0.0762939
-0.0457764
-0.0714111
-0.101013
-0.119019
-0.116272
-0.126343
-0.0869751
0.0274658
0.194702
0.20813
0.174561
0.224915
0.25238
0.269775
0.188293
0.0387573
-0.117493
-0.233459
-0.321655
-0.315247
-0.303345
-0.253906
-0.196838
-0.154114
-0.114136
0.0466919
0.088501
0.065918
0.0756836
0.0817871
0.16449
0.231323
0.178528
0.139465
0.0317383
-0.0735474
-0.107727
-0.143433
-0.191956
-0.194397
-0.133972
-0.133362
-0.155029
-0.201416
-0.227051
-0.341492
-0.351257
-0.195618
-0.0222778
0.0643921
0.128784
0.0680542
-0.0128174
-0.0372314
-0.0616455
-0.0415039
-0.0588989
-0.0372314
0.0292969
0.0350952
0.0857544
0.0790405
0.0415039
0.032959
0.0634766
0.114136
0.168152
0.177307
0.105896
-0.0100708
-0.0949097
-0.0509644
0.093689
0.214844
0.169373
0.0680542
0.0283813
-0.0527954
-0.153809
-0.104065
0.0466919
0.135193
0.119019
0.0338745
-0.0637817
-0.140991
-0.0964355
-0.0210571
0.0759888
0.111084
0.0387573
-0.0598145
-0.0442505
-0.0579834
-0.105591
-0.0762939
0.0680542
0.205383
0.227966
0.0878906
-0.0280762
-0.0643921
-0.107727
-0.110168
-0.0421143
-0.0396729
-0.00732422
0.100403
0.242615
0.322571
0.310974
0.221558
0.0558472
-0.101929
-0.126648
-0.150757
-0.183716
-0.156555
-0.0839233
-0.0790405
-0.0543213
0.0143433
0.0869751
0.174255
0.230103
0.240479
0.226746
0.221252
0.155029
0.124512
0.104675
0.0311279
-0.0390625
0.0198364
0.0973511
0.204773
0.229492
0.187683
0.340881
0.487061
0.452576
0.322571
0.128174
-0.0891113
-0.163269
-0.142822
-0.151367
-0.149841
-0.108948
-0.0119019
0.112
0.140991
0.0585938
-0.0921631
-0.190125
-0.165405
-0.0680542
-0.00244141
-0.0335693
-0.105286
-0.0552368
-0.00732422
0.0192261
0.122375
0.19043
0.193787
0.193787
0.222168
0.16571
0.0228882
-0.0622559
-0.0927734
-0.146179
-0.171509
-0.0787354
0.00671387
0.0189209
0.0222778
0.0289917
0.00488281
0.0131226
0.0585938
0.101318
0.188599
0.251465
0.19989
0.136414
0.127869
0.112305
0.135193
0.263367
0.229797
0.171814
0.267639
0.333862
0.323792
0.233459
0.129089
0.00152588
-0.0857544
-0.0842285
-0.0970459
-0.0177002
0.159912
0.361633
0.399475
0.253906
0.0778198
0.00488281
0.0894165
0.126648
0.0390625
-0.0436401
-0.0665283
-0.0183105
0.0769043
0.140686
0.220642
0.248108
0.110168
0
-0.0906372
-0.159302
-0.0717163
-0.0534058
-0.0915527
-0.0500488
0.0274658
0.0613403
0.071106
0.112915
0.088501
0.0784302
0.055542
0.0595093
0.0375366
-0.0765991
-0.117798
-0.00610352
0.142822
0.0927734
-0.0830078
-0.0665283
0.0109863
0.139465
0.209045
0.233154
0.265503
0.290527
0.354004
0.397949
0.334778
0.216064
0.00762939
-0.14679
-0.123596
0.00793457
0.1474
0.180054
0.222168
0.266113
0.197754
0.141602
0.119629
0.0567627
0.0106812
0.0375366
0.0500488
0.0247192
0.000610352
0.0817871
0.197754
0.279236
0.326233
0.207214
0.010376
-0.0552368
-0.0387573
-0.062561
-0.0765991
-0.101013
-0.0897217
-0.098877
-0.129089
-0.0881958
-0.0357056
-0.0192261
0
0.0115967
-0.0408936
-0.0939941
-0.155334
-0.124207
-0.111084
-0.0436401
0.0088501
-0.017395
-0.055542
-0.0601196
-0.050354
-0.017395
0.0662231
0.0680542
0.0521851
0.0463867
0.0869751
0.137024
0.139465
0.0466919
0.0195312
0.108948
0.143738
0.0817871
-0.00396729
-0.015564
-0.00701904
0.0274658
0.136108
0.174255
0.119019
0.00183105
-0.110168
-0.156555
-0.145874
-0.160217
-0.127258
0.00457764
0.127869
0.177307
0.260315
0.231628
0.0601196
-0.115051
-0.158691
-0.239563
-0.256653
-0.19165
-0.0543213
0.0476074
0.159607
0.215759
0.167236
0.0439453
-0.0244141
-0.124207
-0.185852
-0.121765
-0.101624
-0.143127
-0.160217
-0.187683
-0.169983
-0.126648
-0.105286
-0.150757
-0.146484
-0.0628662
-0.0509644
-0.150452
-0.205688
-0.156555
-0.111389
-0.039978
0.045166
0.0289917
0.0216675
0.0473022
0.0454712
-0.00946045
-0.0109863
-0.0228882
-0.0610352
0.000610352
0.0933838
0.0708008
0.032959
0.0500488
0.0552368
-0.00671387
-0.103149
-0.151672
-0.154114
-0.160522
-0.0897217
0.022583
0.0909424
0.0765991
-0.0112915
-0.175171
-0.268555
-0.269165
-0.176392
0.0512695
0.256042
0.265198
0.0814819
-0.109558
-0.172729
-0.0790405
0.00396729
-0.0357056
-0.152893
-0.215759
-0.149841
-0.045166
0.0653076
0.13916
0.125427
0.16449
0.0619507
-0.112305
-0.205688
-0.210876
-0.176392
-0.0512695
0.00579834
0.0283813
0.0683594
0.0891113
0.172729
0.104065
-0.137329
-0.211182
-0.161438
-0.0924683
0.0320435
0.0933838
0.14801
0.149841
0.0408936
-0.0967407
-0.145569
-0.145569
-0.139465
-0.152893
-0.102234
-0.083313
-0.0439453
0.0338745
0.102844
0.139465
0.098877
0.0527954
0.00732422
0.000305176
0.0140381
0.0411987
0.0946045
0.127563
0.139465
0.140076
0.0964355
0.032959
-0.0704956
-0.119019
-0.13092
-0.183105
-0.209351
-0.152588
-0.117493
-0.128479
-0.0900269
0
0.118408
0.215759
0.249329
0.166016
-0.020752
-0.100098
-0.0100708
0.0317383
0.0469971
0.03479
-0.0460815
-0.0665283
-0.0598145
-0.0424194
-0.00518799
-0.0192261
-0.0616455
-0.0421143
-0.0109863
0.0137329
-0.020752
-0.121765
-0.0753784
-0.00579834
0.038147
0.0717163
0.0631714
0.0741577
0.083313
0.0860596
0.157776
0.229797
0.240173
0.0970459
-0.180359
-0.323792
-0.30426
-0.176392
-0.00396729
0.159302
0.248718
0.219727
0.0747681
-0.065918
-0.109253
-0.0170898
0.168762
0.248718
0.164795
0.0286865
-0.122986
-0.132751
-0.0942993
-0.107117
-0.158997
-0.225525
-0.193481
-0.0592041
0.0158691
0.0628662
0.055542
0.0286865
0.0241089
0.00335693
-0.0418091
-0.0588989
-0.0964355
-0.0933838
-0.0344849
-0.0265503
-0.0134277
-0.0369263
-0.0985718
-0.151367
-0.226135
-0.255127
-0.187073
-0.0488281
0.116882
0.172424
0.109863
0.0125122
0.0158691
0.0106812
-0.00244141
-0.0216675
0.0146484
0.0497437
0.0814819
0.108337
0.1297
0.173645
0.127563
0.0582886
0.0271606
-0.0534058
-0.140991
-0.133972
-0.0582886
-0.0308228
-0.0100708
0.0119019
0.0375366
0.0820923
0.0680542
0.0479126
0.0158691
0.149841
0.300293
0.327454
0.250244
0.085144
-0.0604248
-0.0650024
-0.022583
0.0128174
0.0653076
0.127869
0.161743
0.101624
0.0259399
-0.0460815
-0.18158
-0.249329
-0.197754
-0.122986
-0.0576782
0.00488281
0.101318
0.184937
0.227966
0.157471
0.0650024
-0.0161743
-0.062561
-0.100708
-0.134277
-0.118408
-0.142212
-0.151367
-0.150757
-0.151367
-0.105591
-0.0552368
-0.0393677
0.0109863
0.0796509
0.144653
0.296936
0.441284
0.467224
0.316162
0.0985718
0.0234985
0.0387573
0.0549316
0.00335693
-0.0405884
0.0140381
0.0994873
0.131226
0.0921631
-0.0271606
-0.18158
-0.245361
-0.230408
-0.18219
-0.119629
-0.0344849
0.050354
0.115662
0.167236
0.171204
0.106201
0.0601196
0.0457764
-0.00579834
0.00823975
-0.0109863
0.000915527
0.155029
0.255127
0.295105
0.283508
0.134888
0.00732422
-0.0442505
-0.0262451
0.0112915
0.118408
0.205994
0.135498
-0.0137329
-0.152588
-0.226746
-0.192566
-0.123596
-0.0241089
0.0439453
0.078125
0.152588
0.192566
0.179749
0.022583
-0.145569
-0.142212
0.0241089
0.192261
0.30426
0.241394
0.0186157
-0.120239
-0.0857544
0.0695801
0.198669
0.164795
0.0134277
-0.134583
-0.19928
-0.137329
-0.0720215
-0.0296021
0.0457764
0.0842285
0.0604248
0.0128174
-0.114136
-0.195007
-0.248108
-0.184326
-0.0405884
0.105591
0.176697
0.101318
-0.0201416
-0.114441
-0.155945
-0.145264
-0.0915527
-0.0366211
-0.020752
-0.0256348
-0.0292969
0.0653076
0.142212
0.159302
0.16571
0.0979614
-0.00640869
-0.0588989
-0.148621
-0.186768
-0.0714111
0.0671387
0.159912
0.148621
0.0643921
0.0216675
-0.0576782
-0.136108
-0.133362
-0.147095
-0.12207
-0.156555
-0.214233
-0.2005
-0.162964
-0.113525
-0.0415039
0
0.00488281
-0.0567627
-0.050354
-0.104065
-0.111694
-0.0765991
-0.0643921
-0.00610352
0.0192261
0.0439453
0.0424194
0.0436401
0.0424194
-0.0317383
-0.183716
-0.243225
-0.167847
-0.0866699
-0.0421143
0.0454712
0.154724
0.220947
0.24353
0.126343
-0.0100708
-0.00854492
-0.0439453
-0.0982666
-0.179138
-0.214539
-0.211182
-0.208435
-0.166321
-0.0827026
-0.0222778
-0.0335693
-0.0704956
-0.0369263
0.0262451
0.0744629
0.0354004
-0.0598145
-0.119934
-0.0976562
-0.0567627
-0.0405884
-0.0518799
-0.0863647
-0.123596
-0.0509644
0.00915527
0.0390625
0.0177002
-0.017395
-0.0601196
-0.108643
-0.13031
-0.14801
-0.126038
-0.0802612
-0.122375
-0.184021
-0.159302
-0.0274658
0.178223
0.341492
0.314331
0.105591
-0.168762
-0.300598
-0.14679
0.00762939
-0.043335
-0.130615
-0.131836
-0.131226
-0.0326538
0.134277
0.247498
0.307922
0.332031
0.214539
0.100403
0.114136
0.139771
0.0857544
0.000610352
-0.136414
-0.213928
-0.170593
-0.119934
-0.0817871
-0.0567627
-0.0296021
0.00335693
0.0500488
-0.0256348
-0.136108
-0.202332
-0.201416
-0.160217
-0.203552
-0.228882
-0.142212
0.00671387
0.090332
0.0875854
0.0320435
0.050354
0.106506
0.101318
0.0448608
-0.0338745
-0.0823975
-0.0906372
-0.0680542
-0.032959
0.0216675
0.0653076
0.0875854
0.101624
0.134277
0.139771
0.0961304
0.0415039
-0.0372314
-0.120239
-0.151367
-0.194702
-0.215149
-0.194092
-0.14801
-0.0662231
-0.038147
-0.0448608
-0.0369263
-0.0088501
0.00274658
0.0488281
0.10376
0.111084
0.0469971
-0.0234985
-0.0299072
0.0408936
0.140076
0.270386
0.362244
0.313416
0.290833
0.187988
-0.00274658
-0.174866
-0.167847
-0.0564575
0.0405884
0.0622559
-0.0247192
-0.100403
-0.101929
-0.0637817
-0.00274658
0.0668335
0.105591
0.109558
0.109253
0.0982666
0.148315
0.194702
0.0912476
-0.0186157
-0.117798
-0.293884
-0.361328
-0.229797
-0.0454712
0.0668335
0.102844
0.0656128
0.072937
0.122375
0.10498
0.0265503
-0.00518799
0.0314331
0.000305176
-0.00579834
-0.00701904
0.00549316
0.0650024
0.0949097
0.121765
0.116882
0.0738525
0.0357056
0.0375366
-0.0326538
-0.0500488
-0.0186157
0.0216675
0.071106
0.0384521
-0.0390625
-0.0820923
-0.0665283
-0.0198364
0.0119019
0.0601196
0.0595093
0.0680542
0.0308228
-0.00671387
0.0830078
0.183411
0.265503
0.226135
0.067749
-0.142212
-0.222778
-0.150452
0.0814819
0.339661
0.463867
0.437012
0.238953
-0.0186157
-0.088501
-0.0839233
0.015564
0.0845337
0.151672
0.219727
0.249329
0.230103
0.185242
0.0753784
-0.0961304
-0.170288
-0.101318
-0.0686646
-0.0820923
-0.148315
-0.111694
-0.0222778
-0.0137329
0.00640869
0.0366211
0.0146484
0.00854492
0.020752
0.0234985
-0.0204468
-0.123291
-0.133667
-0.0613403
0.0527954
0.0881958
0.0680542
0.0744629
0.0735474
0.00457764
-0.065918
-0.083313
-0.0723267
-0.0485229
-0.0543213
-0.0515747
-0.0479126
-0.0216675
-0.00946045
-0.0241089
0.0186157
0.109253
0.193176
0.210571
0.190125
0.0900269
0.0497437
0.0564575
0.015564
0.00335693
-0.015564
-0.123291
-0.192566
-0.14801
-0.0827026
-0.0802612
-0.0250244
0.0442505
0.0927734
0.206604
0.227966
0.114136
-0.0473022
-0.111084
-0.0796509
0.00640869
0.0805664
0.132751
0.175476
0.113831
-0.0436401
-0.272217
-0.415039
-0.303955
-0.0732422
0.062561
0.116272
0.128479
0.128784
0.100708
0.0723267
0.0231934
0.0537109
0.0671387
0.0442505
0.0180054
-0.0396729
-0.0747681
-0.0125122
0.0540161
-0.0088501
-0.151978
-0.205688
-0.179443
-0.110168
-0.06073
-0.0369263
-0.0448608
0.00701904
0.0265503
0.00762939
-0.0692749
-0.114746
-0.131226
-0.111389
-0.0842285
-0.0686646
-0.0488281
-0.0817871
-0.0997925
-0.0857544
-0.0741577
-0.055542
-0.062561
-0.0897217
-0.100403
-0.093689
-0.0753784
-0.0231934
0.00274658
0.00732422
-0.00610352
-0.0415039
-0.0515747
-0.0317383
-0.017395
0.0390625
0.0131226
-0.0567627
-0.124512
-0.115662
-0.116272
-0.0817871
-0.00488281
0.186462
0.276184
0.258179
0.142517
-0.050354
-0.0958252
0.0674438
0.175476
0.195923
0.127258
-0.0183105
-0.163879
-0.177917
-0.104675
-0.0631714
-0.0457764
-0.109558
-0.178833
-0.178833
-0.0961304
-0.0808716
-0.127869
-0.119324
-0.116577
-0.0271606
0.0662231
0.0445557
0.0354004
0.0418091
0.0128174
-0.0192261
-0.0442505
-0.0601196
-0.071106
-0.0704956
-0.0579834
-0.0469971
-0.0335693
-0.0924683
-0.0985718
-0.0305176
0.00915527
0.0558472
0.192566
0.291138
0.281067
0.238953
0.154114
-0.00396729
-0.0732422
-0.0888062
-0.106506
-0.071106
-0.0408936
-0.0354004
0.0192261
0.0534058
0.0317383
-0.010376
-0.0256348
-0.0686646
-0.105286
-0.10437
-0.0747681
-0.0592041
-0.00488281
0.0515747
0.14801
0.259705
0.28717
0.195923
0.109253
0.0921631
0.0848389
0.0787354
0.0415039
0.00152588
0.0128174
0.133972
0.116577
-0.0231934
-0.14801
-0.153503
-0.0836182
-0.0485229
-0.0491333
-0.0610352
-0.0582886
-0.0631714
-0.032959
-0.0158691
-0.0180054
-0.0183105
-0.0344849
-0.0561523
-0.0427246
-0.045166
-0.057373
-0.072937
-0.122375
-0.117493
-0.090332
-0.0241089
0.0238037
0.0704956
0.101624
0.0778198
0.0527954
0.050354
0.062561
0.137634
0.193176
0.177917
0.0970459
-0.0552368
-0.193787
-0.191345
-0.116272
-0.0320435
-0.0305176
-0.0515747
-0.0286865
0.0540161
0.151062
0.163269
0.187683
0.122986
-0.0808716
-0.204773
-0.25116
-0.216675
-0.0515747
0.10498
0.15686
0.129089
0.0689697
-0.00793457
-0.071106
-0.0979614
-0.0524902
0.00457764
0.0332642
0.102844
0.146179
0.155945
0.110779
0.0439453
-0.0115967
-0.00610352
0.0540161
0.0637817
0.0799561
0.104065
0.0933838
0.0375366
-0.00732422
-0.0772095
-0.118103
-0.126038
-0.152283
-0.108948
-0.00488281
0.102844
0.14679
0.149841
0.0302124
-0.0686646
-0.0198364
0.0598145
0.0698853
0.0350952
-0.0408936
-0.106812
-0.127258
-0.0915527
-0.0466919
-0.00854492
-0.00946045
-0.038147
-0.038147
-0.0421143
-0.0335693
-0.0408936
-0.0540161
-0.0393677
-0.0213623
-0.0161743
0.00762939
0.0219727
0.0512695
0.0393677
-0.017395
-0.0497437
-0.0283813
0.043335
0.0869751
0.0540161
-0.0262451
-0.129089
-0.206909
-0.195007
-0.0982666
-0.0149536
0.00610352
0.0769043
0.0793457
-0.0137329
-0.0866699
-0.154114
-0.137634
0.0100708
0.0650024
0.0894165
0.0491333
-0.00793457
-0.0012207
0.0524902
0.0827026
0.118713
0.0640869
0.0479126
0.104675
0.2005
0.273132
0.23407
0.115356
-0.0424194
-0.111389
-0.101624
-0.0134277
0.0198364
-0.0500488
-0.0723267
-0.0698853
-0.104675
-0.141296
-0.116272
0
0.135193
0.21637
0.194702
0.0939941
0.0350952
-0.0125122
-0.0177002
-0.027771
-0.0698853
-0.0689697
-0.0881958
-0.0912476
-0.0512695
-0.0100708
-0.0119019
-0.022583
-0.0393677
-0.0402832
0.0311279
0.0997925
0.135803
0.0814819
-0.0827026
-0.236206
-0.323792
-0.307617
-0.135803
0.105896
0.245667
0.282898
0.192261
0.0927734
0.0491333
0.0650024
0.0772095
0.0454712
0.000305176
-0.0100708
-0.0271606
-0.0714111
-0.0723267
-0.0680542
-0.0466919
0.0106812
0.0784302
0.120239
0.107422
0.00457764
-0.0592041
-0.0131226
0.0512695
0.0564575
-0.00396729
-0.0100708
0.0421143
0.0686646
0.0881958
0.0839233
0.0805664
0.0891113
0.0534058
-0.00213623
0.0164795
0.0119019
-0.00976562
-0.0482178
-0.136719
-0.154724
-0.0997925
-0.0210571
0.0543213
0.0265503
-0.116272
-0.188599
-0.139771
-0.0756836
-0.00488281
-0.020752
-0.0775146
-0.0665283
-0.00640869
0.0671387
0.0759888
0.0674438
0.104675
0.12085
0.133667
0.0997925
0.0753784
0.115356
0.282898
0.432129
0.437012
0.295105
0.0561523
-0.0613403
0.06073
0.157776
0.102539
-0.0820923
-0.366211
-0.404358
-0.305176
-0.213623
-0.100098
-0.045166
-0.0466919
0.06073
0.257874
0.335083
0.229797
-0.00762939
-0.198364
-0.328064
-0.272522
-0.100708
-0.0231934
0.0564575
0.185852
0.229492
0.229797
0.275574
0.223389
0.085144
0.0274658
-0.0765991
-0.112915
0.0231934
0.152588
0.21759
0.136108
-0.0161743
-0.0772095
-0.0308228
0.0198364
-0.0231934
-0.115356
-0.148621
-0.0997925
-0.146484
-0.14801
-0.0582886
0.022583
0.0326538
0.00549316
0.00152588
-0.0292969
-0.00762939
0.00427246
-0.0436401
-0.0619507
-0.0680542
-0.0436401
0.0363159
0.177917
0.281372
0.239563
0.133057
0.0314331
0.00823975
0.0387573
0.0549316
-0.0482178
-0.154114
-0.148315
-0.0970459
-0.0619507
-0.0527954
-0.0372314
0.00366211
0.0146484
0.00823975
-0.00701904
-0.0991821
-0.160522
-0.149841
-0.154419
-0.0784302
0.0531006
0.072937
0.141907
0.162354
0.0857544
-0.00946045
-0.0692749
-0.0552368
0.0546265
0.254517
0.518494
0.577393
0.494385
0.390015
0.136414
-0.00488281
-0.0320435
-0.13916
-0.169983
-0.18158
-0.221863
-0.17395
-0.0588989
0
0.0125122
-0.111694
-0.260925
-0.320435
-0.257568
-0.118103
0
0.0457764
0.0689697
0.0891113
0.113525
0.100403
0.0567627
-0.0183105
-0.0576782
0.0845337
0.271912
0.375061
0.369263
0.242615
0.0430298
-0.114746
-0.225525
-0.313721
-0.274963
-0.150452
-0.112305
-0.09552
-0.0674438
-0.0341797
0.0326538
0.0570679
0.039978
0.0720215
0.115662
0.115967
0.0289917
-0.0558472
-0.0296021
0.111084
0.151978
0.155945
0.130615
0.120239
0.112305
0.105286
0.0549316
0.0289917
0.0723267
0.11322
0.072937
-0.0283813
-0.100708
-0.0866699
-0.0534058
-0.0509644
-0.0476074
-0.0305176
-0.0262451
0.0128174
0.0875854
0.220032
0.250549
0.149536
0.050354
-0.127563
-0.257874
-0.238953
-0.111084
0.0424194
0.131531
0.142212
0.10376
0.101624
0.0637817
0.0259399
0.0350952
0.0473022
-0.00305176
-0.0567627
-0.0308228
0.0582886
0.0698853
0.0631714
0
-0.0460815
-0.0698853
-0.0610352
-0.0970459
-0.135498
-0.12207
-0.0866699
-0.0317383
0.102234
0.245361
0.394592
0.4953
0.49408
0.368042
0.0857544
-0.223083
-0.278931
-0.202637
-0.190125
-0.141296
-0.0521851
-0.00823975
0.0131226
0.00915527
0.0186157
0.000305176
0.00152588
-0.0143433
-0.0393677
-0.0619507
-0.062561
-0.0473022
-0.0411987
0.0204468
0.10437
0.180054
0.238342
0.200195
0.118713
-0.0158691
-0.133667
-0.217285
-0.23407
-0.215759
-0.0927734
0.0656128
0.145874
0.143738
0.104675
0.0305176
-0.0708008
-0.0866699
-0.027771
0.122375
0.140686
0.0164795
-0.101318
-0.118408
-0.0308228
-0.0177002
-0.0384521
-0.0747681
-0.0958252
-0.107727
-0.119934
-0.124817
-0.0701904
0.00457764
0.130615
0.179138
0.213623
0.174255
0.0732422
0.0765991
0.131836
0.164185
0.114441
-0.0012207
-0.158081
-0.221252
-0.159302
0.0228882
0.108337
0.112305
0.0698853
-0.0479126
-0.0985718
-0.0650024
-0.0567627
-0.0570679
0.0234985
0.0747681
0.0891113
0.0784302
0.0628662
0.0473022
0.0827026
0.124817
0.12085
0.0653076
-0.0524902
-0.116577
-0.0930786
-0.0592041
-0.0177002
0.0280762
0.0616455
0.108032
0.142822
0.153503
0.144958
0.119019
0.043335
-0.045166
-0.0924683
-0.0900269
-0.0363159
-0.00823975
0.00488281
0.0244141
0.0418091
0.0701904
0.0335693
-0.00396729
-0.0180054
-0.0320435
0.0210571
0.0839233
0.120544
0.0616455
-0.0592041
-0.166931
-0.243835
-0.143127
0.022583
0.114746
0.0872803
0.0372314
-0.0540161
-0.142212
-0.0875854
0.0408936
0.088501
0.0692749
-0.0476074
-0.177307
-0.176086
-0.125427
-0.0854492
0.0262451
0.115051
0.197754
0.270386
0.271301
0.245667
0.191956
0.0378418
-0.0592041
-0.127869
-0.177307
-0.129089
-0.0323486
0.0274658
0.0524902
0.017395
-0.110168
-0.151062
-0.0350952
0.133362
0.212402
0.245972
0.256653
0.169373
0.0497437
0.0134277
0.0158691
0.0192261
-0.0241089
-0.093689
-0.101318
-0.0564575
-0.0357056
-0.00274658
0.0219727
0.050354
0.038147
-0.0646973
-0.176086
-0.239868
-0.175171
-0.017395
0.115967
0.1474
0.09552
-0.0100708
-0.100403
-0.115356
-0.108948
-0.0720215
-0.0442505
0.0189209
0.078125
0.11261
0.111694
0.0192261
-0.13031
-0.204773
-0.137024
0
0.0997925
0.0753784
-0.0302124
-0.045166
-0.00579834
-0.00366211
0.00427246
0.0411987
0.0680542
0.0775146
0.134888
0.128479
0.13916
0.170898
0.0808716
-0.00793457
-0.0247192
-0.0692749
-0.0473022
0.039978
0.0787354
0.113525
0.134888
0.105896
0.0521851
0.06073
0.22644
0.326538
0.167847
-0.168457
-0.332336
-0.315247
-0.25238
-0.176392
-0.112305
-0.0747681
-0.0598145
-0.0424194
-0.0387573
-0.0527954
-0.0613403
-0.0842285
-0.0552368
-0.0616455
-0.10437
-0.0738525
-0.0408936
-0.00427246
0.071106
0.0863647
0.0360107
-0.0112915
-0.0686646
-0.0698853
0.0567627
0.115356
0.116272
0.107422
0.127563
0.157166
0.183105
0.122681
0.0582886
-0.078125
-0.110779
0.0891113
0.324097
0.379639
0.267334
0.0271606
-0.22522
-0.187378
0.00579834
0.100098
0.10376
0.100098
0.0286865
0.0286865
-0.00640869
-0.112915
-0.148315
-0.186768
-0.222778
-0.263367
-0.218811
-0.128784
-0.0598145
0.0192261
0.0695801
0.0857544
0.0680542
-0.0137329
-0.104675
-0.0991821
-0.104065
-0.0646973
0.000305176
0.00640869
-0.00213623
0.00488281
0.0222778
0.0790405
0.0942993
0.0814819
0.0408936
0.00793457
-0.00640869
-0.0366211
-0.0732422
-0.0738525
-0.0695801
-0.114441
-0.173645
-0.151062
-0.0830078
-0.00244141
0.0354004
0.0463867
0.0234985
0.0238037
0.0234985
0.0384521
0.0823975
0.113831
0.0604248
0.032959
0
-0.0320435
0.0402832
0.132751
0.151062
0.184631
0.201111
0.166931
0.131226
-0.00305176
-0.119629
-0.139465
-0.166321
-0.207214
-0.201721
-0.12146
0.0125122
0.146179
0.154419
0.134277
0.109558
0.0735474
0.0576782
-0.142517
-0.255432
-0.175171
-0.0668335
0.0598145
0.136414
0.0973511
0.0375366
0.00488281
0.0344849
0
-0.055542
-0.0491333
-0.0436401
-0.0314331
-0.0662231
-0.0930786
-0.0808716
-0.0668335
-0.00244141
0.0970459
0.111084
0.128479
0.126038
0.0976562
0.0997925
0.143738
0.158386
0.12207
0.0595093
-0.0271606
-0.0622559
-0.0558472
-0.0558472
-0.0915527
-0.0732422
-0.0527954
-0.0421143
-0.0360107
-0.0439453
-0.0628662
-0.0308228
0.000915527
-0.00823975
0.00762939
0.0753784
0.197449
0.309143
0.344543
0.287476
0.159912
0.0524902
-0.0564575
-0.115356
-0.0674438
-0.0238037
-0.0479126
-0.0463867
-0.0363159
-0.0588989
-0.106506
-0.135803
-0.132141
-0.0424194
0.0531006
0.0613403
0
-0.118103
-0.224915
-0.313721
-0.312195
-0.140686
0.148926
0.307617
0.289917
0.212097
0.125427
0.015564
-0.0305176
0.00213623
0.0296021
0.0326538
0.0268555
0.0137329
-0.00396729
0.00518799
0.0256348
0.017395
0.00976562
-0.00305176
0.00854492
0.0564575
0.0549316
0.020752
0.0198364
0.00946045
0.000915527
0.0485229
0.0994873
0.123596
0.123596
0.0930786
-0.0241089
-0.100098
-0.098877
-0.101318
-0.129089
-0.159302
-0.1297
-0.0320435
0.0756836
0.115051
0.0604248
-0.0354004
-0.0698853
-0.065918
-0.0350952
-0.00701904
-0.00762939
-0.0192261
-0.0100708
-0.0186157
-0.0332642
-0.0463867
-0.00762939
-0.0210571
-0.00946045
-0.0216675
-0.0323486
0.0134277
0.0509644
0.0802612
0.139465
0.178833
0.119019
0.100708
0.111389
0.0643921
-0.0299072
-0.106506
-0.14801
-0.241699
-0.246887
-0.129089
-0.0619507
-0.0238037
-0.072937
-0.101013
-0.0628662
-0.0146484
0.00335693
-0.00457764
0.0012207
-0.00854492
-0.0479126
-0.0820923
-0.0796509
-0.0283813
0.0579834
0.127258
0.13092
0.16571
0.254822
0.285339
0.292358
0.237122
-0.00366211
-0.190125
-0.190125
-0.142822
-0.115662
-0.125122
-0.160217
-0.207214
-0.194702
-0.196533
-0.125732
-0.0979614
-0.0598145
-0.0512695
-0.0186157
0.0152588
0.0698853
0.108948
0.0906372
0.062561
0.0671387
0.0836182
0.122986
0.143127
0.128174
0.0326538
-0.0994873
-0.113831
-0.0662231
-0.0375366
-0.0012207
0.0466919
0.0628662
0.0466919
0.0344849
-0.0143433
-0.0961304
-0.176392
-0.159912
-0.0958252
0.0183105
0.1297
0.151062
0.0915527
0.0482178
0.0302124
0.022583
0.0180054
0.0631714
0.13855
0.169678
0.131226
0.0415039
-0.071106
-0.108948
-0.0744629
-0.0552368
-0.0469971
-0.0540161
-0.0686646
-0.0180054
0.0430298
0.0219727
-0.0271606
-0.06073
-0.0393677
0.0662231
0.137329
0.151672
0.138855
0.137024
0.135193
0.0744629
0.0302124
0.0592041
0.0311279
-0.0296021
-0.083313
-0.122375
-0.17334
-0.141907
0.0262451
0.107422
0.10376
0.0274658
-0.0698853
-0.0643921
-0.0518799
-0.0610352
-0.0872803
-0.0698853
-0.0271606
0.0497437
0.114441
0.120544
0.0662231
-0.00762939
-0.0888062
-0.111389
-0.0387573
0.0253296
0.0741577
0.119934
0.10437
0.0268555
-0.0326538
-0.0296021
-0.0143433
0.0671387
0.118408
0.161743
0.232544
0.264893
0.245361
0.128784
0.00335693
-0.0894165
-0.109558
-0.0302124
-0.00976562
-0.0772095
-0.125427
-0.0253296
0.150146
0.262146
0.276794
0.20813
0.0375366
-0.0827026
-0.0808716
-0.0494385
0
-0.0643921
-0.166321
-0.218201
-0.210876
-0.0469971
0.0720215
0.0714111
0.0564575
0.00457764
-0.00274658
0.0158691
-0.0466919
-0.062561
0.00152588
0.0415039
-0.00640869
-0.0274658
-0.0576782
-0.0411987
0.0579834
0.136414
0.193787
0.189209
0.0442505
-0.0476074
-0.0653076
-0.0881958
-0.137634
-0.134888
-0.0967407
-0.0427246
0.172729
0.352478
0.433044
0.357666
0.180969
-0.0241089
-0.159607
-0.219727
-0.246887
-0.213318
-0.133972
-0.0692749
-0.0244141
-0.0125122
-0.0302124
-0.0836182
-0.14679
-0.133972
-0.0146484
0.191345
0.26825
0.17395
-0.0341797
-0.152588
-0.125427
-0.0222778
0.0524902
0.0741577
0.038147
0.0167847
0.0012207
-0.0424194
-0.0732422
-0.012207
0.101013
0.128479
0.0671387
-0.0338745
-0.176086
-0.169983
-0.0320435
0.071106
0.0411987
0.0421143
0.00946045
-0.0125122
0.0332642
0.00274658
-0.0158691
-0.015564
-0.0634766
-0.0326538
0.0631714
0.147095
0.175171
0.113831
-0.00488281
-0.0744629
-0.0753784
-0.0323486
-0.0326538
-0.022583
0.00854492
0.0476074
0.06073
0.0570679
0.0338745
-0.0149536
-0.0466919
-0.0445557
-0.0698853
-0.0802612
-0.0299072
0.0604248
0.110779
0.122986
0.0723267
-0.0283813
-0.0909424
-0.0906372
-0.0466919
0.00213623
0.0183105
0.00183105
-0.00976562
-0.0314331
0.00244141
0.0363159
0.0595093
0.0796509
0.0723267
0.0601196
0.0970459
0.111389
0.0836182
0.0231934
-0.00457764
0
0.00701904
0.0241089
0.0125122
-0.00854492
0.00549316
-0.0357056
-0.101624
-0.0418091
-0.00701904
-0.0405884
-0.0714111
-0.12207
-0.123596
-0.104065
-0.106506
-0.126953
-0.103149
-0.062561
0.0537109
0.0866699
0.0167847
-0.0299072
-0.0259399
0.0137329
0.0158691
-0.0146484
0.0543213
0.160828
0.232239
0.253601
0.143433
0.00671387
-0.0326538
0.012207
0.0949097
0.0582886
-0.0704956
-0.130615
-0.124512
-0.100403
-0.0308228
0.0695801
0.102539
0.0927734
0.0335693
-0.0143433
0.010376
-0.0119019
-0.0241089
-0.0210571
-0.00579834
-0.0405884
-0.0994873
-0.0808716
-0.00518799
0.0582886
0.0506592
0.010376
-0.088501
-0.135498
-0.115051
-0.0753784
-0.0378418
-0.0405884
-0.0854492
-0.101013
-0.0704956
-0.0326538
0.0335693
0.055542
0.0515747
0.0469971
0.0387573
-0.0146484
-0.0674438
-0.101624
-0.161133
-0.141907
-0.0460815
-0.067749
-0.0878906
-0.022583
0.0973511
0.132446
0.111084
0.0726318
0.0317383
0.0177002
0.039978
0.0756836
0.173035
0.236511
0.187683
0.0857544
-0.010376
-0.0588989
0.0137329
0.0927734
0.118713
0.0717163
-0.0674438
-0.184326
-0.1828
-0.139465
-0.113831
-0.0863647
-0.0250244
0.03479
0.0668335
0.0866699
0.0128174
-0.0497437
-0.071106
-0.0656128
-0.0735474
-0.0881958
-0.0622559
-0.0143433
0.0320435
0.0686646
0.0967407
0.090332
0.0552368
0.0180054
0.0164795
0.0308228
0.027771
0.0231934
-0.00671387
-0.0317383
-0.0311279
-0.0637817
-0.0915527
-0.0827026
-0.0112915
0.0561523
0.0604248
0.00854492
0.00762939
0.00274658
-0.0442505
-0.0735474
-0.0613403
-0.015564
0.00335693
-0.00762939
0.00152588
0.0247192
0.0704956
0.139465
0.195618
0.161133
0.0610352
-0.0167847
-0.00579834
-0.0088501
-0.0421143
-0.127869
-0.125427
0.0143433
0.122681
0.0979614
-0.0088501
-0.155945
-0.231018
-0.2005
-0.104675
0.130005
0.354309
0.46814
0.439453
0.230103
-0.0592041
-0.25177
-0.330505
-0.252991
-0.0546265
0.0897217
0.121765
0.065918
0.0192261
-0.0253296
-0.0430298
-0.0314331
-0.0222778
-0.0985718
-0.112915
-0.0714111
-0.0338745
-0.0393677
-0.0628662
-0.0256348
-0.00793457
0.0509644
0.088501
0.0839233
0.0656128
-0.00274658
-0.107727
-0.148926
-0.196838
-0.236816
-0.210571
-0.176086
0
0.0405884
-0.0476074
-0.0906372
-0.117493
-0.098877
0.0143433
0.118103
0.109863
0.0756836
0.0390625
0.0262451
-0.00793457
-0.0247192
0.00854492
0.0128174
0.0299072
0.0628662
0.104065
0.118103
0.125122
0.142517
0.0897217
0.000915527
-0.00518799
-0.022583
-0.0357056
-0.00427246
0.0613403
0.172119
0.235901
0.171204
0.0189209
-0.106201
-0.108032
-0.0195312
0.0732422
0.111389
0.102844
0.0280762
-0.057373
-0.132751
-0.101624
-0.0564575
-0.0476074
0.0302124
0.0854492
0.0601196
0.0109863
-0.022583
0.045166
0.0671387
0.0534058
-0.00823975
-0.110168
-0.12146
-0.0576782
0.0146484
0.0128174
0.0280762
0.0369263
0.0640869
0.104065
0.0915527
0.0714111
0.0863647
0.0543213
-0.0228882
-0.0857544
-0.0881958
-0.0704956
-0.0448608
-0.0204468
0.012207
0.0189209
0.0204468
0.0195312
0.0231934
0.00976562
-0.0222778
-0.055542
-0.0592041
-0.0515747
-0.0158691
0.0463867
0.0616455
0.0592041
0.0521851
0.0338745
0.039978
0.06073
0.0695801
0.0656128
0.0476074
0.0344849
0.0262451
0.0204468
0.0262451
0.027771
0.0488281
0.0341797
0.0308228
0.0314331
0.0289917
0.0411987
0.0411987
0.0393677
0.0549316
0.0543213
0.0421143
0.0256348
0.0167847
0.00701904
0.0289917
0.0424194
0.0387573
0.0299072
0.0253296
0.0268555
0.020752
0.017395
0.0201416
0.017395
0.0216675
0.0283813
0.0384521
0.0344849
0.0506592
0.0631714
0.0772095
0.103455
0.127869
0.143433
0.153198
0.141907
0.155029
0.143433
0.142822
0.147705
0.128174
0.0823975
0.0830078
0.132141
0.196838
0.246582
0.294495
0.289001
0.219421
0.229797
0.201416
0.14801
0.123291
0.176697
0.301514
0.392761
0.436401
0.460815
0.449524
0.430603
0.462952
0.440369
0.402527
0.446472
0.441589
0.384827
0.381775
0.334167
0.296021
0.293579
0.151367
-0.0805664
-0.202332
-0.250549
-0.278931
-0.263062
-0.247192
-0.169983
-0.161438
-0.12146
-0.0723267
-0.194397
-0.342407
-0.406799
-0.291138
-0.157166
0.0863647
0.186462
0.360718
0.371704
0.27832
0.169373
0.0366211
-0.161438
-0.268555
-0.323181
-0.21637
-0.179443
-0.259399
-0.352478
-0.455017
-0.545044
-0.55481
-0.435486
-0.213623
0.0845337
0.20752
0.407715
0.46814
0.422668
0.648499
0.576477
0.240784
0.0582886
-0.0350952
-0.308228
-0.24231
-0.177917
-0.361633
-0.482178
-0.37262
-0.287476
-0.484619
-0.603333
-0.513611
0.015564
0.580139
0.774231
0.687256
0.360107
0.175476
-0.217896
-0.690002
-0.646667
-0.211792
0.127869
0.133972
-0.072937
-0.534363
-0.964661
-0.85083
-0.385132
-0.0546265
0.0119019
-0.443726
-0.823059
-0.770569
-0.666504
-0.0427246
1.06812
1.78223
1.90399
1.16821
-0.245667
-0.975647
-0.800171
-0.440979
-0.334778
-0.395813
-0.517883
-0.739441
-1.03607
-1.52557
-1.41052
-0.804749
0.164185
0.979309
1.38611
0.963745
0.151367
0.0231934
0.0363159
-0.0430298
-0.296021
-0.575256
-0.814209
-0.809326
-0.762024
-0.534363
0.0869751
0.976562
0.958557
0.4422
0.10437
0.0341797
0.172729
0.497742
0.570984
0.525818
0.11322
0.139771
0.186157
0.10437
-0.176697
-0.566406
-0.628967
-0.621338
-0.452271
-0.0646973
0.330811
0.533142
0.317078
0.0244141
-0.195618
-0.296021
-0.0250244
0.622864
0.953674
0.716248
0.252991
-0.314636
-0.594177
-0.77179
-0.775146
-0.49469
-0.126953
0.0405884
-0.163879
-0.283508
-0.238953
-0.194702
-0.0942993
0.19165
0.73822
1.14563
1.17584
0.592957
-0.584106
-1.01166
-0.686646
-0.461731
-0.613403
-0.672302
-0.445862
0.0326538
0.313416
0.389709
0.506592
0.351562
-0.101624
-0.403137
-0.32959
-0.0119019
0.731812
1.34552
1.26434
0.747375
0.120239
-0.23407
-0.137024
-0.318604
-0.24231
-0.166321
-0.240784
-0.357361
-0.561218
-0.629578
-0.687866
-0.467529
-0.192871
0.055542
0.133057
0.371399
0.585022
1.02112
1.09894
0.429993
-0.224609
-0.328369
-0.125427
0.271606
0.464783
0.258484
-0.534668
-0.92041
-0.756531
-0.514221
-0.239258
-0.575256
-0.879211
-0.693665
-0.0704956
0.358887
0.395813
0.562744
0.990601
1.03271
0.469971
-0.13031
-0.210266
-0.155334
-0.180359
-0.209351
-0.131531
0.0582886
0
-0.141602
-0.266724
-0.172424
-0.116272
-0.0354004
-0.0497437
-0.0427246
0.536804
0.737305
0.491333
0.06073
-0.388184
-0.144043
0.269775
0.379333
0.264893
-0.235901
-0.393982
0.0970459
0.370789
0.419617
-0.00518799
-0.594177
-1.2442
-1.27197
-0.898743
-0.323486
0.137939
0.00579834
-0.090332
0.212402
0.390015
0.551147
0.394287
0.146179
0.146179
0.21698
-0.14801
-0.277405
0.00976562
0.227661
0.27771
0.288391
0.403748
0.0320435
-0.115051
-0.302124
-0.256042
-0.352478
-0.38269
-0.235901
0.0927734
0.0387573
-0.0994873
-0.0915527
0.210876
0.635986
0.899963
0.656738
0.346985
0.24292
0.258484
0.140076
-0.117493
-0.37262
-0.536804
-0.376587
-0.0698853
0.162048
0.183105
0.0259399
-0.19989
-0.393677
-0.478821
-0.343323
0.00396729
0.216064
0.188904
0.020752
0.012207
-0.0402832
-0.0869751
0.0164795
0.141296
0.0662231
-0.177612
-0.571899
-0.596924
-0.160828
0.281677
0.381775
0.090332
-0.326843
-0.501709
-0.180664
0.253601
0.322876
0.213623
0.0332642
-0.1828
-0.0750732
0.110474
0.354919
0.680847
0.752258
0.524597
0.170898
-0.0430298
0.00701904
0.200806
0.253601
0.210266
0.085144
-0.26947
-0.571899
-0.555725
-0.611267
-0.836182
-0.681152
-0.468445
-0.284424
-0.0637817
-0.14679
-0.032959
0.144653
0.337524
0.25116
0.0558472
0.00366211
0.0289917
0.157166
0.278625
0.300293
0.389404
0.591125
0.447083
0.272217
0.115967
-0.0912476
-0.4422
-0.637207
-0.387268
-0.226135
0.0894165
0.207825
0.101013
0.00152588
0.0912476
0.117493
0.0900269
0.128784
0.1474
0.275269
0.392151
0.314636
0.364685
0.351257
0.169983
0.0134277
0.11261
0.0830078
0.00854492
-0.103455
-0.261841
-0.314636
-0.300903
-0.0604248
0.10437
0.122681
0.0552368
-0.104065
-0.0515747
-0.0128174
-0.128174
-0.305786
-0.302734
-0.280151
-0.131531
0.200806
0.646057
0.924988
0.659485
0.0842285
-0.540466
-0.565796
-0.311279
-0.235291
-0.090332
0.0228882
0.253296
0.355225
0.312195
0.0527954
-0.032959
0.0732422
0.177002
0.250244
0.20874
0.0918579
-0.0177002
-0.0515747
-0.0494385
0.0247192
-0.0201416
-0.498962
-0.857849
-0.655518
-0.133667
0.31311
0.395203
0.259094
0.23468
0.0698853
-0.12085
-0.124512
-0.0479126
-0.072937
0.0393677
0.106201
0.071106
0.0704956
0.34729
0.555725
0.535278
0.571594
0.28717
-0.126648
-0.500793
-0.623474
-0.455322
-0.180969
-0.117798
-0.128784
0.0183105
0.248413
0.34668
0.393372
0.218201
0.0363159
-0.102539
-0.0732422
0.0842285
0.241089
0.0430298
-0.284119
-0.505676
-0.560303
-0.378418
-0.0570679
0.0415039
0.0796509
0.12207
0.236206
0.350037
0.307922
0.126648
-0.171814
-0.403748
-0.484924
-0.684814
-0.647278
-0.147705
0.287476
0.231323
-0.0350952
-0.137634
-0.0393677
0.276184
0.72937
1.10382
0.87616
0.294495
-0.275879
-0.372314
-0.185547
0.0131226
0.0292969
-0.118713
-0.169983
0.0219727
0.12146
0.0714111
-0.220032
-0.362244
-0.382385
-0.216675
-0.128784
-0.144043
-0.0509644
-0.00152588
-0.123596
0.102844
0.271912
0.282898
0.247498
0.113525
0.0537109
-0.0396729
0.0546265
0.246582
0.289001
0.183716
-0.102539
-0.207825
-0.0469971
0.00915527
-0.0390625
-0.179749
-0.197144
-0.0390625
0.0888062
0.19928
0.192261
0.265503
0.253601
0.278015
0.150452
-0.134583
-0.254822
-0.282898
-0.188904
-0.204163
-0.18158
-0.0308228
0.279541
0.421143
0.237732
-0.193787
-0.486145
-0.678711
-0.471802
-0.162048
0.065918
0.385437
0.492859
0.424194
0.170898
-0.13092
-0.271606
-0.372925
-0.365906
-0.120544
0.117188
0.228271
0.235291
0.246277
0.425415
0.386658
0.265808
-0.0146484
-0.191345
-0.382385
-0.490112
-0.367432
-0.175171
-0.114746
-0.0473022
0.0354004
-0.0454712
-0.115356
0.0708008
0.26001
0.435181
0.364685
0.203857
0.136108
0.0714111
0.0280762
-0.0576782
-0.0558472
-0.062561
-0.129089
-0.289917
-0.401917
-0.35675
-0.0918579
0.0238037
0.257263
0.472717
0.464478
0.265808
0.111694
0.0119019
-0.0326538
-0.14679
-0.0378418
0.273438
0.365601
0.308838
0.202332
0.101318
-0.0320435
-0.209656
-0.274353
-0.458069
-0.522766
-0.33783
-0.085144
0.306396
0.506592
0.532532
0.428467
0.174866
0.0778198
-0.0915527
-0.25177
-0.23407
-0.190125
-0.00244141
0.203857
0.275574
0.174255
-0.0650024
-0.444641
-0.762024
-0.764465
-0.415649
0.0106812
0.140076
0.21637
0.15564
0.0360107
-0.0311279
-0.0167847
0.155945
0.19989
0.140991
0.0854492
0.158691
0.163879
0.20752
0.269165
0.335388
0.354004
0.32196
0.0891113
-0.337219
-0.636902
-0.525208
-0.209961
0.225525
0.376282
0.361633
0.253296
-0.153503
-0.384216
-0.343018
-0.111084
0.0128174
0.188904
0.291748
0.297852
0.104065
-0.28595
-0.46051
-0.322571
-0.0546265
0.179138
0.184021
0.127563
0.124817
0.114441
0.108948
0.00915527
-0.102844
-0.158386
0.0637817
0.454102
0.79071
0.845642
0.563049
0.354309
0.00701904
-0.375061
-0.566711
-0.545349
-0.398865
-0.174561
0.0473022
0.0820923
-0.093689
-0.183716
-0.248413
-0.215149
-0.168152
-0.177307
-0.139465
-0.105286
0.120239
0.260925
0.0680542
-0.0524902
-0.0469971
0.0643921
0.197449
0.230408
0.148926
-0.0552368
-0.333252
-0.423889
-0.376587
-0.286865
-0.150452
-0.0244141
0.0289917
-0.057373
-0.0601196
0.162048
0.349426
0.440674
0.450439
0.357666
0.0704956
-0.131836
-0.257568
-0.33844
-0.160828
0.0317383
0.19104
0.141907
0.0582886
0.00762939
0.0601196
0.0424194
0.0708008
0.17395
0.235291
0.237732
0.14679
0.0326538
-0.0473022
-0.0177002
-0.141907
-0.364075
-0.36499
-0.118713
0.0427246
0.09552
0.257263
0.267944
0.132446
-0.062561
-0.302734
-0.351562
-0.162354
0.00396729
-0.00488281
0.00244141
0.0177002
0.0152588
-0.022583
-0.00457764
0.0424194
0.201111
0.34668
0.379028
0.21698
-0.0219727
-0.249939
-0.353088
-0.222778
-0.134583
-0.0656128
-0.0796509
0.00427246
0.150757
0.162048
0.101929
-0.0387573
-0.0942993
-0.0219727
0.216675
0.292969
0.232544
-0.105286
-0.231628
-0.19043
-0.0296021
0.30426
0.298767
0.15564
0.0704956
-0.0848389
-0.475159
-0.567627
-0.386658
-0.174561
-0.138245
-0.172119
-0.146179
0.0308228
0.262146
0.265503
0.205383
0.24292
0.204468
0.17334
0.119629
-0.0216675
-0.172424
-0.18158
-0.0726318
-0.055542
-0.0656128
-0.117493
-0.158997
-0.113831
0.0540161
0.0930786
0.0701904
0.0152588
0.0582886
0.114746
0.0735474
0.0680542
0.0772095
0.0650024
0.10437
0.142517
0.187988
0.0863647
-0.13092
-0.252991
-0.296936
-0.306702
-0.127869
-0.0299072
-0.0305176
-0.0219727
-0.0512695
-0.204163
-0.135803
0.0537109
0.16571
0.204163
0.127258
0.0497437
0.039978
0.279541
0.298157
0.0744629
-0.175171
-0.238342
-0.25177
-0.198669
-0.101624
-0.0558472
-0.0994873
-0.183105
-0.2005
0.000610352
0.183105
0.201721
0.166016
0.231934
0.32196
0.338745
0.261536
0.169983
0.160217
0.0619507
0.00213623
-0.110779
-0.238647
-0.258179
-0.331116
-0.377502
-0.281067
-0.0762939
0.201416
0.391846
0.496826
0.392761
0.180969
-0.0738525
-0.343933
-0.448914
-0.291138
0.000305176
0.144653
0.143738
0.183105
0.184631
-0.0564575
-0.300598
-0.401917
-0.440674
-0.40863
-0.288391
-0.137939
0.16449
0.397034
0.482178
0.308533
0.169983
0.103455
0.0738525
0.171509
0.264893
0.238953
0.202332
0.162964
0.0863647
-0.140076
-0.222473
-0.115051
-0.0665283
0.0228882
0.0305176
-0.0692749
-0.105591
-0.045166
-0.0531006
-0.072937
-0.192261
-0.267334
-0.327454
-0.184021
-0.0180054
0.0216675
0.043335
0.0592041
0.122375
0.186768
0.254517
0.311279
0.378113
0.284119
0.104675
-0.195312
-0.528259
-0.588989
-0.480347
-0.0158691
0.299683
0.366821
0.292358
0.212402
0.149536
0.167847
0.22644
0.1651
-0.0918579
-0.246277
-0.151367
-0.0283813
0.0491333
0.0875854
-0.0717163
-0.105896
-0.0778198
-0.038147
0.0564575
0.155029
0.327148
0.426331
0.13916
-0.159912
-0.240173
-0.310059
-0.222168
-0.0485229
-0.020752
0.0848389
0.0866699
0.0863647
0.0991821
0.0488281
0.0695801
0.0680542
-0.0738525
-0.144653
-0.13092
-0.00732422
0.0738525
0.0558472
-0.0106812
-0.110779
-0.328064
-0.110779
0.364685
0.596008
0.478821
0.159912
-0.0646973
-0.137329
-0.093689
-0.117798
-0.131226
-0.139465
-0.152893
-0.195007
-0.134888
-0.0610352
-0.0125122
0.03479
-0.0466919
-0.00579834
0.0494385
-0.0735474
-0.0772095
0.15564
0.227356
0.244446
0.0778198
-0.0756836
-0.117188
-0.0714111
0.065918
0.0872803
0.0192261
-0.0552368
-0.127258
-0.13855
-0.0576782
0.0512695
0.102234
0.136414
0.273438
0.400391
0.231323
-0.0643921
-0.398254
-0.56488
-0.406494
-0.126343
0.0637817
0.171509
0.105286
0.0320435
-0.0527954
-0.020752
0.0183105
0.136108
0.201721
0.161133
0.0814819
-0.140991
-0.253906
0.0131226
0.332642
0.365601
0.195312
0.0375366
-0.0354004
-0.0363159
0.0411987
0.110779
0.137939
0.124207
0.0134277
-0.132141
-0.213928
-0.243835
-0.224915
-0.100708
0.0488281
0.11322
0.0631714
0
-0.0143433
0.0674438
0.128174
0.102844
0.00946045
-0.0662231
-0.0518799
-0.0292969
-0.0256348
-0.0869751
-0.0894165
-0.0241089
0.109558
0.236511
0.313416
0.270386
0.233459
0.0979614
-0.0146484
-0.0891113
-0.253906
-0.305481
-0.323486
-0.213013
0.00610352
0.0454712
0.106201
0.118713
0.010376
-0.0247192
0.0289917
0.043335
-0.00366211
-0.0906372
-0.134277
-0.182495
-0.210266
-0.200195
-0.0183105
0.218811
0.323486
0.244751
0.209351
0.229187
0.191956
0.154114
0.0180054
0.0112915
0.0848389
0.0790405
0.0115967
-0.0634766
-0.0393677
-0.0961304
-0.123596
-0.0521851
0.144958
0.259094
0.177917
0.0531006
-0.0726318
-0.0485229
0.0891113
0.0796509
0.0128174
-0.0265503
-0.0238037
-0.0216675
0.057373
0.0979614
-0.00366211
-0.124817
-0.0872803
-0.0491333
-0.0112915
0.0701904
-0.00610352
-0.163269
-0.256958
-0.191956
-0.0558472
0.0836182
0.19989
0.0930786
-0.0405884
-0.100708
-0.124817
-0.012207
-0.00274658
-0.10498
-0.188293
-0.291138
-0.24292
-0.131531
-0.0418091
0.0808716
0.260315
0.218201
0.071106
0.0524902
0.0799561
0.253906
0.263367
0.177612
0.0949097
-0.0323486
-0.11322
-0.0463867
0.0753784
0.125732
0.113831
0.10376
0.169067
0.375977
0.429382
0.09552
-0.272522
-0.384521
-0.209656
0.0140381
0.108948
0.0427246
0
-0.0509644
-0.00946045
0.055542
0.0558472
0.020752
-0.0320435
-0.153198
-0.215759
-0.228577
-0.239868
-0.0827026
-0.00732422
-0.0198364
0.0360107
-0.00457764
0.0354004
0.129089
0.183411
0.130005
0.0637817
0.0234985
-0.039978
-0.108337
-0.101929
-0.045166
-0.00152588
0.0271606
-0.0476074
-0.178528
-0.188293
-0.0283813
0.201721
0.324707
0.223999
0.0524902
-0.0186157
0.0488281
0.0622559
0.145569
0.26825
0.228577
0.078125
-0.102844
-0.20813
-0.221863
-0.206909
-0.0897217
-0.0128174
0.122681
0.317078
0.447388
0.403137
0.265198
0.0289917
-0.0857544
-0.0671387
-0.128479
-0.269775
-0.278625
-0.166016
-0.0482178
0.027771
0.156555
0.214539
0.166016
0.0741577
0.0579834
0.057373
0.015564
-0.0271606
-0.0317383
-0.0164795
0.012207
-0.00701904
0.0186157
0.127869
0.16571
0.15564
0.115967
0.0708008
0.039978
0.0363159
0.00762939
0
-0.022583
-0.0619507
-0.0857544
-0.276794
-0.380249
-0.311279
-0.25116
-0.00427246
0.262756
0.240784
0.109558
0.0680542
0.101624
0.141602
0.235596
0.367126
0.301514
0.125427
-0.0491333
-0.167542
-0.137024
-0.0634766
0.0152588
0.108337
0.159607
-0.0247192
-0.0650024
-0.050354
-0.0845337
-0.0958252
-0.223389
-0.557251
-0.754395
-0.763855
-0.384521
0.10498
0.255737
0.210876
0.207214
0.142517
0
-0.0970459
-0.0842285
0.055542
0.162964
0.109863
0.0997925
0.161743
0.221863
0.234375
0.15686
0.0964355
0.0613403
0.0268555
0.0497437
0.0405884
0.000305176
-0.0131226
0.0228882
-0.0479126
-0.0820923
-0.11322
-0.0732422
0.00610352
0.0088501
-0.0222778
-0.0390625
-0.0323486
-0.0323486
0.0128174
-0.0112915
0.00823975
0.12146
0.288391
0.446167
0.427246
0.278015
-0.0869751
-0.371704
-0.453491
-0.344543
-0.00793457
0.231628
0.34668
0.335693
0.21759
-0.0634766
-0.244751
-0.235901
-0.205383
-0.14679
-0.0543213
-0.0299072
-0.0576782
-0.062561
-0.118713
-0.156555
-0.26947
-0.279846
-0.15564
0.134583
0.187683
0.0753784
-0.0616455
-0.03479
0.0820923
-0.0448608
-0.137939
-0.135803
-0.147095
-0.249329
-0.281067
-0.273743
-0.232849
0.282898
0.548401
0.473938
0.291748
0.144653
0.0341797
-0.0140381
-0.038147
0.105591
0.27832
0.324402
0.206604
0.0863647
0.0604248
0.14801
0.340881
0.374451
0.182495
-0.0253296
-0.101624
-0.211182
-0.210266
-0.18219
-0.144958
-0.112
-0.0650024
-0.0579834
-0.0735474
-0.0601196
-0.0793457
-0.133057
-0.191345
-0.245056
-0.252075
-0.191345
-0.211182
-0.179138
-0.15686
-0.10498
0.0311279
0.10498
0.0241089
-0.0167847
-0.0244141
-0.0210571
0.039978
0.113831
-0.00701904
-0.194397
-0.256348
-0.270996
-0.172729
0.00915527
0.0634766
0.0180054
0.0189209
-0.0119019
0.103455
0.133362
0.11322
0.105286
0.118103
0.0674438
0.0186157
-0.062561
-0.071106
0.0784302
0.377808
0.667419
0.731201
0.470886
0.112305
-0.0643921
-0.130615
-0.170898
-0.256042
-0.144348
-0.00366211
0.0564575
-0.00671387
-0.249329
-0.44342
-0.435181
-0.227661
-0.107727
-0.0570679
0.0476074
0.116882
0.13916
0.17395
0.222473
0.0836182
-0.067749
-0.213623
-0.190125
-0.0942993
-0.000610352
0.123596
0.0814819
0.0662231
0.0842285
0.11261
0.0897217
0.0579834
0.0280762
-0.0283813
-0.0527954
0
0.0579834
0.0814819
0.0106812
-0.165405
-0.231934
-0.169067
-0.0448608
0.0177002
0.0546265
0.0939941
0.0878906
0.083313
0.0289917
0.0228882
0.0192261
0.00946045
-0.00305176
-0.0204468
-0.0308228
-0.0375366
0.0588989
0.0732422
0.0170898
-0.0579834
-0.0836182
0.010376
0.0680542
0.0753784
0.12207
0.230408
0.23407
0.158997
0.00244141
-0.189514
-0.190125
-0.0704956
-0.0357056
-0.0198364
0.0970459
0.177917
0.33783
0.26825
0.0424194
-0.112305
-0.243835
-0.270691
-0.188293
-0.106506
-0.0244141
0.0424194
0.0830078
-0.0140381
-0.156555
-0.170593
-0.0845337
-0.0860596
-0.0909424
-0.114746
-0.168762
-0.0244141
0.0537109
-0.0131226
-0.131226
-0.0552368
0.102539
0.239258
0.275574
0.200195
0.0619507
-0.0408936
-0.0549316
0.0201416
0.108948
0.232239
0.331421
0.317383
0.25177
0.142212
-0.0454712
-0.233765
-0.345764
-0.256348
0.0839233
0.266113
0.238953
0.234375
0.169678
0.0836182
0.0891113
0.0369263
-0.0668335
-0.135193
-0.19165
-0.224915
-0.13855
0.0576782
0.2005
0.201416
0.0643921
-0.0241089
0.0253296
0.0741577
0.154114
0.155029
0.0778198
-0.0744629
-0.218811
-0.227661
-0.158997
-0.137024
-0.119629
-0.0918579
-0.0384521
0.00183105
0.112305
0.218811
0.198975
0.103455
-0.0198364
-0.0720215
-0.0320435
0.0296021
0.0769043
0.102539
0.0387573
-0.163574
-0.326538
-0.322571
-0.191956
-0.00854492
0.140381
0.161743
-0.000915527
-0.0796509
0.0189209
0.126038
0.192261
0.159607
0.129089
-0.0201416
-0.159302
-0.195618
-0.0906372
0.00610352
0.135193
0.169983
0.101929
-0.00427246
-0.0463867
-0.00762939
0.06073
0.132751
0.149536
0.13916
0.0939941
-0.0271606
-0.0817871
-0.0668335
-0.0393677
0.0622559
0.103455
0.0424194
-0.020752
-0.0674438
-0.107727
-0.0735474
-0.0524902
-0.0704956
-0.0701904
-0.083313
-0.0765991
-0.0579834
-0.0668335
-0.12085
-0.119324
0.0430298
0.127869
0.178528
0.176086
0.131531
0.221252
0.292053
0.292053
0.248413
0.0930786
-0.116272
-0.216675
-0.217896
-0.115356
0.0302124
0.0201416
-0.0445557
-0.0671387
-0.0747681
-0.104065
-0.190125
-0.272217
-0.310364
-0.272522
-0.065918
0.0958252
0.0875854
0.133057
0.279541
0.396729
0.422058
0.32196
0.147095
0.00274658
-0.118408
-0.176086
-0.188293
-0.176392
-0.14801
-0.127258
-0.0836182
-0.0460815
0.00854492
-0.00488281
0.0579834
-0.0125122
-0.101624
-0.196533
-0.238342
-0.2005
-0.158386
0.00244141
0.266724
0.290833
0.179443
0.107117
0.142517
0.155334
0.104065
0.0402832
-0.093689
-0.231628
-0.221558
-0.0424194
0.12085
0.214844
0.247498
0.139771
-0.03479
-0.0946045
-0.135498
-0.162964
-0.122986
-0.0311279
-0.0540161
-0.110779
-0.0881958
-0.0219727
0.107422
0.153503
0.142517
0.0921631
0.118408
0.23407
0.363464
0.405579
0.196228
-0.178833
-0.491028
-0.596619
-0.515442
-0.259705
0.0430298
0.169067
0.135193
0.0592041
0.0378418
-0.00305176
-0.0930786
-0.209961
-0.254211
-0.276489
-0.21698
-0.124207
-0.0680542
-0.0466919
0.0320435
0.0158691
0.0369263
0.0634766
0.107117
0.128784
0.13855
0.137634
0.173035
0.198059
0.0845337
-0.110168
-0.185852
-0.140991
-0.122375
-0.0405884
0.0912476
0.174866
0.167236
0.0827026
-0.00793457
-0.0128174
0.00610352
0.0942993
0.0775146
-0.0192261
-0.0180054
-0.0402832
-0.121155
-0.0875854
0.0186157
-0.0357056
-0.112
-0.127869
-0.0872803
0.0131226
0.0759888
0.0582886
0.0296021
0.0228882
0.116882
0.22583
0.206299
0.0784302
-0.0222778
-0.140381
-0.0570679
0.0814819
0.0360107
-0.137024
-0.278931
-0.347595
-0.20874
-0.0598145
-0.0134277
0.0442505
0.125732
0.13855
0.0643921
0.0289917
-0.0112915
-0.105286
-0.194702
-0.269775
-0.284424
-0.0424194
0.207825
0.223694
0.145874
0.112305
0.0949097
0.0204468
-0.10437
-0.213013
-0.21759
-0.161438
-0.0509644
0.0933838
0.130615
0.137634
0.0360107
-0.10498
-0.161133
-0.0335693
0.183411
0.118713
0.174866
0.307007
0.253296
0.223389
0.135803
-0.0198364
-0.157776
-0.265198
-0.263062
-0.133972
0.00976562
0.110168
0.179749
0.231628
0.232239
0.233765
0.127258
-0.0576782
-0.116882
-0.115967
-0.116882
-0.0305176
-0.00946045
-0.0613403
-0.071106
-0.0354004
0.0567627
0.085144
0.0125122
-0.0543213
0.0201416
0.189819
0.19989
0.0784302
-0.18219
-0.401917
-0.427551
-0.346985
-0.274353
-0.201416
-0.0714111
0.0479126
0.0601196
0.104675
0.150757
0.131836
0.112
0.0750732
0.0100708
-0.0534058
-0.145874
-0.189209
-0.0778198
0.0973511
0.134888
-0.0131226
0.00762939
0.027771
-0.00335693
-0.0909424
-0.130005
-0.0778198
0.000305176
0.0344849
0.017395
-0.0842285
-0.167847
-0.189819
-0.142212
-0.104675
-0.121155
-0.085144
-0.0637817
0.174255
0.427551
0.409546
0.304565
0.154114
0.0604248
-0.0222778
-0.0582886
-0.0881958
-0.072937
-0.0778198
-0.0973511
-0.102844
-0.0869751
-0.0549316
-0.0592041
0.0241089
0.0402832
0.0360107
0.0408936
0.0170898
0.0222778
0.0924683
0.117798
0.0799561
0.0125122
-0.0372314
-0.0405884
-0.0479126
-0.114746
-0.138245
-0.133667
-0.03479
0.0915527
0.194397
0.220642
0.125732
-0.0350952
-0.247803
-0.377197
-0.209045
-0.0247192
-0.00152588
0.00610352
0.0158691
-0.0302124
-0.0671387
-0.0646973
-0.0106812
0.0744629
0.118103
0.0448608
-0.0567627
-0.140991
-0.101929
-0.0189209
0.0164795
0.0582886
0.0765991
0.117493
0.17395
0.179443
0.136108
0.110474
0.131531
0.187988
0.227966
0.169983
0.0515747
0.0396729
0.00152588
-0.0601196
-0.0271606
0.0814819
0.205383
0.23407
0.106812
-0.114441
-0.378113
-0.524292
-0.561218
-0.506592
-0.26947
-0.0524902
0.222473
0.312195
0.346985
0.417786
0.403442
0.289307
0.174255
0.0656128
0.00244141
-0.0442505
-0.0543213
0.0341797
0.168152
0.332642
0.458069
0.428467
0.254211
0.0344849
-0.179138
-0.20874
-0.116272
-0.0244141
0.0012207
-0.0375366
-0.0686646
-0.125732
-0.128479
-0.146179
-0.178833
-0.185852
-0.184631
-0.156555
-0.0390625
0.0460815
0.148315
0.246582
0.276184
0.307617
0.224304
0.112
0.12085
0.122986
0.00671387
-0.125732
-0.118713
-0.0790405
-0.0579834
-0.0686646
-0.101624
-0.137024
-0.11261
-0.0613403
0.0332642
0.213623
0.253601
0.211182
0.225525
0.239258
0.198669
0.133667
0.0698853
0.00396729
-0.0186157
-0.00762939
-0.0494385
-0.0564575
-0.0375366
0.0112915
0.0384521
0.0540161
0.0946045
0.123596
0.122375
0.0997925
0.0363159
0.0219727
0.109253
0.153503
0.105286
-0.0250244
-0.107727
-0.0674438
-0.0280762
0.0161743
0.0601196
0.162048
0.233765
0.236511
0.127563
-0.0616455
-0.209656
-0.280762
-0.290527
-0.307007
-0.350037
-0.346985
-0.245056
-0.139465
-0.0183105
0.189209
0.421143
0.526123
0.482178
0.310974
0.31189
0.337219
0.274353
0.220337
0.0323486
-0.20874
-0.354004
-0.344849
-0.35675
-0.330505
-0.256958
-0.160828
-0.0686646
-0.0271606
0.0726318
0.127258
0.111389
0.0390625
-0.0177002
-0.0146484
0.0378418
0.0576782
0.0427246
0.00396729
-0.010376
-0.00762939
0.0570679
0.0643921
0.0497437
0.0509644
0.0448608
0.027771
0.0234985
0.0244141
0.022583
0.0137329
0.015564
0.0149536
0.0332642
0.0469971
0.0637817
0.0674438
0.0491333
0.0140381
-0.0338745
-0.0521851
-0.0637817
-0.0540161
-0.0518799
-0.0418091
-0.0454712
-0.0430298
-0.0280762
-0.0192261
-0.00762939
-0.0186157
0.00152588
0.0161743
0.0241089
0.0628662
0.085144
0.107422
0.170898
0.270081
0.270691
0.163879
0.0088501
-0.0827026
-0.171509
-0.206299
-0.180359
-0.0930786
-0.0296021
-0.0805664
-0.111084
-0.113831
-0.106201
-0.0390625
0.00610352
0.00244141
0.00793457
-0.00579834
-0.00488281
0.00305176
0.0198364
0.0497437
0.0509644
0.0375366
-0.00366211
-0.0546265
-0.0692749
-0.0613403
-0.0613403
-0.108032
-0.110168
-0.131531
-0.153198
-0.0982666
0.0579834
0.142822
0.124817
0.0924683
0.0576782
0.0415039
0.0427246
0.0305176
0.0259399
0.00610352
-0.0100708
-0.0314331
-0.0515747
-0.0158691
0.00488281
0.015564
0.0234985
0.0186157
0.00457764
-0.0149536
-0.0393677
-0.050354
-0.0286865
-0.00701904
0.00427246
0.0143433
0.0109863
-0.00152588
0.0161743
0.0100708
0.0167847
0.0204468
0.0228882
0.0167847
0.00579834
-0.0088501
-0.0238037
-0.0552368
-0.0674438
-0.0485229
0.0100708
0.0482178
0.0512695
0.0466919
0.0445557
0.0415039
0.0280762
0.0234985
0.0335693
0.0531006
0.0698853
0.0888062
0.133972
0.170593
0.202942
0.159912
0.116882
0.122681
0.0997925
0.0466919
0.0210571
-0.111389
-0.221863
-0.218811
-0.239563
-0.220337
-0.117798
-0.0186157
-0.00366211
0.0259399
0.0161743
-0.0192261
-0.0796509
-0.12085
-0.123291
-0.0979614
-0.0686646
-0.0460815
-0.0308228
-0.00427246
0.017395
0.00518799
-0.0222778
-0.0402832
-0.0827026
-0.113525
-0.127258
-0.121155
-0.0796509
0.0473022
0.141296
0.119934
0.0497437
0.020752
0.0570679
0.0921631
0.129089
0.136414
0.0802612
-0.0326538
-0.151978
-0.240784
-0.261841
-0.224609
-0.1474
-0.105286
-0.0967407
-0.071106
-0.0308228
0.0088501
0.0418091
0.0405884
0.0408936
0.0393677
0.0350952
0.0210571
-0.0112915
-0.0479126
-0.0650024
-0.0714111
-0.0570679
-0.0460815
-0.0576782
0.0384521
0.0704956
-0.0231934
-0.0491333
-0.0411987
-0.0656128
-0.0418091
0.00915527
0.0848389
0.0772095
0.0918579
0.0491333
-0.0219727
-0.0427246
-0.038147
0.00701904
0.062561
0.0704956
0.0524902
-0.00579834
-0.0979614
-0.168457
-0.20874
-0.142517
0.00701904
0.186768
0.239868
0.203247
0.115967
0.0427246
0.00610352
-0.0540161
-0.093689
-0.0115967
0.0915527
0.151978
0.155945
0.0479126
-0.0750732
-0.160522
-0.179443
-0.139465
-0.0799561
-0.0601196
-0.0210571
-0.0164795
-0.0213623
0
-0.00549316
-0.0119019
-0.00732422
-0.0350952
-0.0701904
-0.0732422
-0.0341797
-0.0369263
-0.0506592
-0.0387573
-0.0524902
-0.0610352
-0.0448608
-0.0280762
-0.0125122
0
-0.00640869
-0.0100708
-0.0344849
-0.0723267
-0.0927734
-0.0805664
-0.0735474
-0.112305
-0.171204
-0.170593
-0.10437
-0.038147
0.0244141
0.0637817
0.119324
0.150757
0.179749
0.228577
0.209961
0.142822
0.0692749
0.00854492
-0.0769043
-0.101624
-0.0640869
-0.0289917
-0.0683594
-0.067749
-0.0369263
0.0088501
0.0506592
0.0674438
0.0894165
0.0921631
0.0970459
0.102539
0.108948
0.128174
0.146179
0.123596
0.0192261
-0.106201
-0.205994
-0.154114
-0.0369263
0.121765
0.334778
0.418701
0.394592
0.314331
0.138855
0.0131226
-0.0726318
-0.122681
-0.149231
-0.13855
-0.11261
-0.0827026
-0.0457764
-0.0128174
0.0241089
0.0598145
0.0888062
0.132751
0.158386
0.0775146
-0.0323486
-0.090332
-0.174866
-0.203247
-0.132141
-0.0662231
0.0134277
0.0527954
0.0341797
0.0595093
-0.00305176
-0.00274658
0.0332642
0.0601196
0.045166
0.0256348
0.0378418
0.0570679
0.0393677
-0.0442505
-0.0723267
-0.071106
-0.045166
-0.00610352
0.0418091
0.0442505
0.0332642
0.0274658
0.0366211
0.0619507
0.0579834
0.0497437
0.0488281
0.0344849
0.012207
-0.00274658
-0.0186157
-0.0186157
-0.043335
-0.115967
-0.18219
-0.171509
-0.10376
0.0265503
0.19043
0.277405
0.281067
0.196533
0.0778198
-0.0418091
-0.0973511
-0.140686
-0.171204
-0.166016
-0.0540161
0.057373
0.142822
0.20813
0.200806
0.138855
0.0436401
-0.0689697
-0.107117
-0.13092
-0.117798
-0.106506
-0.131226
-0.153809
-0.112
-0.0317383
0.0192261
0.0231934
0.13855
0.184631
0.174866
0.179138
0.13916
-0.0570679
-0.124207
-0.0161743
0.116577
0.16571
0.0927734
-0.107117
-0.254211
-0.260925
-0.242615
-0.236206
-0.140381
-0.0308228
-0.0305176
-0.0772095
-0.0924683
-0.102539
-0.106812
-0.0549316
-0.00579834
0.0415039
0.0567627
0.0344849
-0.00213623
-0.0112915
-0.00762939
-0.0332642
-0.0427246
-0.0354004
-0.0222778
-0.055542
-0.0726318
-0.0262451
0.0500488
0.0802612
0.0540161
0.0177002
-0.0125122
-0.0216675
-0.0390625
-0.0262451
-0.0341797
-0.03479
-0.00823975
0.03479
0.0357056
0.0354004
0.0231934
0.000610352
-0.0128174
-0.00610352
-0.0119019
0.0378418
0.11261
0.188599
0.242615
0.204163
0.0460815
-0.0894165
-0.122375
-0.0442505
0.0476074
0.142212
0.224304
0.204163
0.132751
0.0842285
0.0460815
0.00823975
-0.0234985
-0.0125122
-0.0088501
0.0112915
0.0534058
0.108643
0.0753784
0.000915527
-0.0576782
-0.102234
-0.12146
-0.135803
-0.093689
-0.00823975
0.0674438
0.0765991
0.0872803
0.0942993
0.10376
0.104065
0.0616455
-0.0088501
-0.0692749
-0.0982666
-0.0744629
-0.0894165
-0.093689
0
0.0332642
0.00823975
0.00579834
0.0390625
0.0875854
0.113525
0.0741577
0.0534058
0.0704956
0.0762939
0.0732422
0.0656128
0.0485229
0.0354004
0.00610352
-0.00518799
0.00244141
-0.0119019
-0.0576782
-0.0686646
-0.0405884
-0.0283813
0.0283813
0.0628662
0.0997925
0.180664
0.211182
0.145874
0.0582886
-0.0424194
-0.137634
-0.0946045
0.0137329
0.108337
0.197449
0.20813
0.170898
0.0741577
-0.0311279
-0.071106
-0.0558472
-0.0579834
-0.00610352
0.0723267
0.0759888
0.0753784
0.0531006
-0.0567627
-0.140686
-0.131836
-0.102539
-0.0521851
0.0708008
0.130615
0.148315
0.170898
0.1474
0.0814819
0.0106812
-0.0488281
-0.143433
-0.176392
-0.189514
-0.172424
-0.111084
-0.0195312
0.0708008
0.134277
0.158386
0.178528
0.168457
0.158386
0.184937
0.184631
0.123901
0.0506592
-0.0244141
-0.120544
-0.164795
-0.117798
-0.0726318
-0.0436401
0
0.0741577
0.104675
0.13092
0.143433
0.111084
0.0283813
-0.0109863
-0.0161743
-0.0698853
-0.162048
-0.169067
-0.114136
-0.0588989
-0.00305176
0.0524902
0.125122
0.0891113
0.0268555
-0.0466919
-0.0750732
-0.0152588
0.0115967
0.0314331
0.107117
0.229797
0.316772
0.367432
0.311279
0.133057
-0.0418091
-0.0891113
-0.0918579
-0.0732422
-0.0732422
-0.0799561
-0.115662
-0.1474
-0.0570679
0.102539
0.182495
0.126038
0.0619507
0.00640869
-0.0561523
-0.12085
-0.132446
-0.121155
-0.0820923
-0.0372314
-0.0259399
-0.0350952
-0.0588989
-0.0619507
-0.078125
-0.0448608
0.0164795
0.057373
0.119324
0.14801
0.10437
0.0253296
0.0012207
-0.00549316
-0.0570679
-0.0558472
0.00579834
-0.0216675
-0.0720215
-0.00823975
-0.00640869
0
0.0201416
-0.0137329
-0.0613403
-0.0265503
0.0961304
0.201416
0.218506
0.166626
0.0216675
-0.0842285
-0.0747681
-0.0216675
-0.0189209
-0.0115967
0.0012207
0.000915527
0.010376
0.0192261
0.0317383
0
0.0332642
0.0680542
0.114441
0.152893
0.194092
0.149231
0.10437
0.0814819
0.0369263
0.0115967
0.0149536
0.0222778
-0.022583
-0.0701904
-0.0704956
-0.0967407
-0.0341797
0.0198364
0.0131226
0.0439453
0.0183105
-0.0524902
-0.119019
-0.130615
-0.137329
-0.0747681
0.00244141
0.0830078
0.083313
0.0466919
0.0274658
0.0253296
0.0402832
0.065918
0.0460815
0.0283813
0.112
0.118713
0.128174
0.120239
0.0546265
-0.00915527
-0.0344849
-0.0735474
-0.0717163
-0.0765991
-0.0210571
0.00854492
-0.00640869
0.0302124
0.0354004
0.0323486
-0.0119019
0.0137329
0.0549316
0.101318
0.085144
0.0973511
0.0839233
0.0305176
-0.0134277
-0.0521851
-0.13092
-0.129395
-0.0320435
0.0564575
0.102539
0.0680542
-0.015564
-0.0476074
-0.012207
-0.0268555
0.0109863
0.0796509
0.140381
0.155945
0.117188
0.0546265
0.0216675
0.000610352
0.0088501
0.0231934
0.0479126
0.0457764
0.038147
0.0634766
0.0900269
0.116272
0.10437
0.0384521
-0.0192261
-0.0646973
-0.109253
-0.0485229
-0.0228882
0.0332642
0.0546265
0.115051
0.170898
0.197754
0.197144
0.121155
-0.0137329
-0.118408
-0.158997
-0.1651
-0.0588989
0
0.0634766
0.0601196
0.017395
-0.098877
-0.171204
-0.114441
-0.0274658
0.0262451
0.088501
0.11261
0.0912476
0.0720215
0.0662231
0.0387573
-0.00213623
0.0170898
-0.0448608
-0.0814819
-0.0775146
-0.0650024
-0.0918579
-0.107727
-0.103455
-0.0613403
-0.0564575
-0.012207
0.0296021
0.0640869
0.100098
0.13092
0.112305
0.101318
0.0524902
-0.0430298
-0.0549316
-0.0189209
0.0161743
0.0357056
0.0827026
0.119324
0.163879
0.206604
0.145874
0.020752
-0.0546265
-0.105896
-0.150146
-0.151062
-0.121765
-0.098877
-0.127563
-0.203552
-0.259094
-0.176086
-0.0759888
0.0939941
0.106506
0.0949097
0.0875854
0.0717163
0.0549316
0
-0.0845337
-0.105591
-0.0866699
-0.00183105
0.0473022
0.0250244
0.0213623
0.0244141
-0.00152588
-0.00396729
-0.00274658
-0.032959
-0.0665283
-0.0598145
-0.0567627
-0.0897217
-0.0946045
-0.0692749
-0.0839233
-0.0540161
0.0753784
0.0991821
0.0912476
0.110779
0.0894165
0.0460815
0.00183105
-0.0296021
-0.0445557
-0.06073
-0.0448608
-0.0222778
-0.0128174
-0.015564
-0.0872803
-0.140686
-0.102539
0.0442505
0.1828
0.21637
0.118713
-0.0366211
-0.130005
-0.19104
-0.151367
-0.0665283
-0.0253296
-0.0344849
-0.0927734
-0.128174
-0.0515747
0.0912476
0.148621
0.126648
0.0735474
0.00915527
-0.00213623
0.0390625
0.0723267
0.0238037
0.00152588
0.0613403
0.104675
0.0613403
0.0128174
-0.0643921
-0.0735474
-0.0521851
-0.0595093
-0.0619507
-0.106506
-0.0543213
0.000610352
0.0115967
0.00762939
0.0100708
0.0643921
0.124207
0.121155
0.115662
0.0650024
-0.00976562
-0.0680542
-0.0610352
-0.0292969
-0.0296021
-0.0302124
-0.0378418
-0.0668335
-0.0982666
-0.0799561
-0.0637817
-0.045166
-0.0299072
-0.0213623
-0.0177002
0.000305176
0.00305176
0.0204468
0.0296021
0.0405884
0.0265503
0.0680542
0.13031
0.151978
0.118408
0.0775146
0.0115967
-0.015564
-0.0784302
-0.0869751
-0.0564575
-0.0619507
-0.0283813
0.0689697
0.0469971
0.0357056
0.057373
0.0869751
0.114136
0.0848389
0.130615
0.18158
0.110779
-0.032959
-0.132751
-0.224304
-0.321655
-0.342407
-0.22522
-0.0738525
0.00823975
0.0357056
0.0390625
0.0115967
0.0134277
0.0579834
0.0939941
0.125427
0.184326
0.218811
0.221863
0.131226
-0.050354
-0.122986
-0.101624
-0.0881958
-0.0613403
-0.0161743
-0.00335693
-0.0125122
-0.00946045
0.0375366
0.0900269
0.108948
0.0857544
0.0283813
-0.0558472
-0.108337
-0.0778198
-0.0784302
-0.0604248
-0.110779
-0.149231
-0.10498
-0.0674438
0.00366211
0.0216675
0.0271606
0
-0.065918
-0.0845337
0.0161743
0.0695801
0.0830078
0.0567627
0.0143433
-0.0146484
-0.050354
-0.115967
-0.12085
-0.0839233
-0.0177002
-0.0320435
0.0424194
0.103149
0.0802612
0.0891113
0.06073
0.00457764
-0.0299072
-0.0543213
-0.0448608
-0.0778198
-0.139771
-0.1651
-0.142822
-0.0912476
0.0125122
0.0402832
0.0546265
0.0671387
0.0485229
-0.0088501
-0.0631714
-0.0378418
0.00396729
0.0619507
0.0448608
0.0228882
-0.00457764
-0.0244141
-0.0344849
-0.0613403
-0.0521851
0.0183105
0.0817871
0.172729
0.195007
0.126038
0.0326538
0.0100708
0.0161743
-0.027771
-0.157776
-0.253296
-0.237732
-0.218201
-0.102234
0.123901
0.195007
0.172424
0.110474
0.0192261
-0.0759888
-0.144348
-0.139465
-0.0271606
0.112
0.206299
0.23468
0.213928
0.141296
0.0302124
-0.0616455
-0.0949097
-0.0881958
-0.0222778
0.0222778
0.00610352
-0.0405884
-0.0439453
-0.0445557
-0.0112915
0.0192261
0.0363159
0.000915527
-0.0360107
-0.071106
-0.0784302
-0.0634766
-0.0186157
0.0100708
0.00823975
-0.00213623
-0.0222778
-0.0231934
-0.0396729
-0.0808716
-0.0836182
-0.0500488
-0.0418091
-0.0314331
-0.0137329
-0.00244141
0.0180054
0.0869751
0.0650024
0.010376
-0.00518799
-0.00946045
-0.0100708
-0.0167847
-0.0247192
-0.0177002
-0.0494385
-0.0964355
-0.121765
-0.129395
-0.0701904
0.0320435
0.0637817
0.0958252
0.0921631
0.0765991
0.128479
0.175476
0.130615
0.0753784
0.0775146
0.0912476
0.0869751
0.0759888
0.0772095
0.125122
0.122681
0.0753784
0.00457764
-0.050354
-0.138245
-0.191956
-0.178223
-0.198364
-0.183105
-0.100708
0.0302124
0.0860596
0.125427
0.143433
0.118408
0.0604248
-0.0088501
-0.0827026
-0.0875854
-0.107117
-0.118713
-0.039978
0.055542
0.0939941
0.105286
0.0912476
0.0149536
-0.0375366
-0.104675
-0.141296
-0.0753784
-0.0772095
-0.0799561
-0.100403
-0.126038
-0.124207
-0.100708
-0.0643921
-0.0427246
-0.0634766
-0.0634766
-0.0201416
0.0662231
0.116577
0.111084
0.0900269
0.103149
0.0756836
0.0482178
0.0152588
-0.00946045
0.00366211
0.0466919
0.0799561
0.130005
0.126648
0.114746
0.0546265
0.00427246
-0.0317383
-0.0546265
-0.0198364
0.0915527
0.158386
0.172424
0.155945
0.150146
0.0772095
0.11322
0.226746
0.239563
0.235596
0.232239
0.111084
-0.0405884
-0.163269
-0.264587
-0.299072
-0.224915
-0.139771
-0.0592041
0.00946045
0.0115967
-0.00213623
-0.017395
-0.00213623
0.00366211
-0.0134277
-0.0216675
-0.0262451
-0.03479
-0.0149536
-0.00549316
-0.0299072
-0.0296021
-0.0411987
-0.0762939
-0.114746
-0.0967407
-0.0482178
0.0393677
0.12207
0.146179
0.164795
0.155945
0.0924683
0.0192261
-0.0271606
-0.14679
-0.189209
-0.1297
-0.0494385
0.0201416
0.0384521
-0.0158691
-0.0387573
-0.0357056
-0.0210571
0.0164795
0.0158691
-0.0100708
-0.00762939
0.0787354
0.155945
0.167542
0.13855
0.085144
0.0582886
0.0405884
0.0479126
0.0582886
0.0228882
0.0274658
0.0949097
0.0750732
0.0234985
0.0180054
0.0137329
0
0.0143433
0.0415039
0.0601196
0.0628662
0.0482178
0.0213623
0.0158691
-0.0247192
-0.0753784
-0.0686646
0.00671387
0.114136
0.177917
0.200806
0.192566
0.131226
0.10437
0.124207
0.145874
0.140686
0.0906372
-0.0357056
-0.164185
-0.250854
-0.288696
-0.254211
-0.166931
-0.0863647
-0.0466919
0.0646973
0.156555
0.136414
0.072937
-0.0210571
-0.128479
-0.155334
-0.118408
-0.101929
-0.132446
-0.125732
-0.0802612
-0.0390625
-0.00427246
0.0320435
0.0598145
0.0378418
-0.022583
-0.0305176
-0.0180054
-0.0332642
-0.0549316
-0.00946045
0.0790405
0.101624
0.0823975
0.0653076
0.022583
-0.0177002
-0.0247192
-0.0256348
-0.0177002
-0.0387573
-0.0790405
-0.0912476
-0.083313
-0.0866699
-0.0796509
-0.108032
-0.151978
-0.209045
-0.230713
-0.238953
-0.171814
0.065918
0.238342
0.238953
0.194702
0.175476
0.140076
0.0888062
0.0378418
0.0170898
0.0192261
0.00396729
0.0140381
0.0570679
0.0811768
0.0485229
0.00152588
-0.039978
-0.0631714
-0.0460815
-0.0177002
-0.0527954
-0.065918
-0.0445557
-0.0222778
0.0204468
0.0421143
0.039978
0.0344849
0.0479126
0.0265503
-0.00762939
-0.0585938
-0.0949097
-0.0976562
-0.03479
0.0411987
0.0881958
0.0839233
0.0216675
-0.093689
-0.120544
-0.0875854
-0.0613403
0.045166
0.148315
0.176697
0.144348
0.105286
-0.00854492
-0.161133
-0.190125
-0.169983
-0.112915
-0.0311279
-0.00457764
-0.00518799
-0.0418091
-0.0952148
-0.123291
-0.0668335
-0.0866699
-0.0930786
-0.0891113
-0.0924683
-0.0994873
-0.11322
-0.123901
-0.145874
-0.0778198
0.0143433
0.043335
0.0402832
0.0436401
0.0448608
0.0323486
0.0283813
0.0219727
-0.00488281
0.00366211
0.0164795
-0.0100708
-0.0613403
-0.0949097
-0.108032
-0.0656128
0
0.0430298
0.0613403
0.0708008
0.0704956
0.0692749
0.0485229
0.00335693
-0.0354004
-0.0473022
-0.0527954
-0.0296021
-0.0296021
-0.0421143
-0.101318
-0.110168
-0.0158691
0.0439453
0.0488281
0.0546265
0.0744629
0.0689697
0.0302124
0.0299072
0.00518799
-0.0576782
-0.109558
-0.140686
-0.108337
-0.0854492
-0.0442505
-0.0286865
-0.0128174
0.0115967
-0.0119019
-0.0378418
-0.0747681
-0.112
-0.0827026
0.00946045
0.115662
0.133057
0.0927734
0.0265503
-0.0292969
-0.0836182
-0.0985718
-0.0650024
-0.0161743
0.0308228
0.138855
0.20752
0.144043
0.00915527
-0.135803
-0.23468
-0.193481
-0.027771
0.0466919
0.0442505
-0.0149536
-0.0521851
-0.050354
-0.0158691
0.022583
0.0201416
0.0393677
0.0692749
0.0790405
0.0698853
0.050354
0.0210571
-0.0527954
-0.12207
-0.121155
-0.0921631
-0.0115967
0.0253296
0.00946045
0.0622559
0.106201
0.124512
0.102844
0.0466919
-0.00610352
-0.0610352
-0.0796509
-0.0509644
-0.0195312
-0.0125122
-0.0601196
-0.0946045
-0.102539
-0.0527954
0.0244141
0.0701904
0.118103
0.118408
0.10437
0.093689
0.0668335
0.0430298
0.0326538
0.0180054
0.0210571
0.0326538
0.00335693
-0.0256348
-0.0457764
-0.0491333
-0.0515747
-0.0793457
-0.0317383
0.0265503
0.0418091
0.0137329
0.000610352
-0.0210571
-0.0701904
-0.0216675
0.0845337
0.148621
0.14801
0.122375
0.0784302
0.0582886
0.0335693
-0.0152588
-0.00640869
0.0341797
0.00701904
-0.0631714
-0.0588989
-0.0491333
-0.0369263
-0.0192261
0.0100708
0.0772095
0.108032
0.0900269
0.043335
0.0137329
0.0387573
0.0442505
-0.00274658
0
0.0256348
0.0106812
0.00183105
0.0195312
0.0497437
0.071106
0.0549316
0.0213623
0.00823975
0.0311279
0.0213623
0.0396729
0.0595093
0.0717163
0.0424194
0.0439453
0.0384521
0.015564
0.00396729
-0.0106812
-0.015564
-0.0125122
0.0131226
0.0335693
0.0201416
-0.00854492
0.0375366
0.138855
0.185242
0.224304
0.21698
0.160217
0.0894165
0.0332642
0.0408936
0.0872803
0.126343
0.131226
0.136414
0.11261
0.0531006
-0.0357056
-0.110779
-0.140686
-0.103149
-0.0933838
-0.0485229
-0.015564
0
0.0375366
0.0378418
0.0460815
0.0616455
0.071106
0.0845337
0.0863647
0.0778198
0.0784302
0.115356
0.13855
0.111694
0.0497437
-0.0186157
-0.0283813
0.0332642
0.0744629
0.065918
0.0152588
-0.0283813
-0.0332642
-0.0259399
-0.03479
-0.0515747
-0.0332642
-0.0289917
0.00152588
0.015564
0.017395
0.00762939
0.000915527
0.00213623
0.00366211
0.0119019
0.0628662
0.0964355
0.102539
0.067749
0.0601196
0.03479
0.0164795
0.0231934
0.00793457
-0.012207
0.0167847
0.0473022
0.0778198
0.0994873
0.100708
0.0582886
0.0183105
-0.0158691
-0.0198364
-0.0317383
-0.0567627
-0.0552368
-0.000305176
0.0234985
0.0592041
0.0985718
0.0482178
-0.0137329
-0.0445557
-0.0894165
-0.0537109
0.012207
0.0405884
0.0595093
0.11322
0.12085
0.0967407
0.0192261
-0.00274658
0.0112915
0.0360107
0.0549316
0.0576782
0.0289917
0.0241089
0.00335693
-0.00732422
-0.0146484
-0.00610352
0.0088501
0.0146484
0.0961304
0.167847
0.118103
0.108948
0.0497437
-0.0421143
-0.0344849
0.0192261
0.0579834
0.0744629
0.0592041
0.0216675
0.00396729
0.0280762
0.0411987
0.06073
0.0308228
0.00640869
-0.0131226
0
0.0283813
0.045166
0.0836182
0.112
0.0949097
0.0463867
0.00762939
-0.0088501
-0.0213623
-0.0198364
-0.0149536
-0.0460815
-0.0732422
-0.117493
-0.138245
-0.0598145
0.0396729
0.085144
0.0643921
0.057373
0.0823975
0.100403
0.115356
0.117493
0.153809
0.176392
0.137939
0.115051
0.0570679
-0.0158691
-0.0674438
-0.102539
-0.109863
-0.113831
-0.125732
-0.124817
-0.117798
-0.0686646
0.017395
0.0537109
0.0726318
0.0735474
0.0500488
0.0650024
0.0601196
0.0244141
0.00732422
-0.017395
-0.0228882
-0.00701904
0
0.0115967
0.0338745
0.0497437
-0.0131226
-0.0415039
-0.0283813
0
0.0439453
0.032959
0.00213623
-0.0747681
-0.127563
-0.161438
-0.161438
-0.118103
-0.017395
0.0753784
0.0656128
0.022583
-0.012207
-0.027771
0.00274658
0.0430298
0.108337
0.135803
0.125122
0.0668335
0.0271606
-0.0323486
-0.0628662
-0.0753784
-0.0524902
-0.027771
-0.00335693
0.0271606
0.0354004
0.0427246
0.015564
-0.015564
-0.0283813
-0.022583
-0.0222778
-0.039978
-0.0186157
-0.0253296
-0.0268555
-0.0363159
-0.0430298
-0.0357056
-0.0411987
-0.0405884
-0.0326538
-0.0241089
0.00946045
0.0552368
0.088501
0.0881958
0.0497437
0.00274658
-0.117798
-0.177307
-0.139465
-0.0985718
-0.0820923
-0.0802612
-0.0192261
-0.0405884
-0.0549316
0.0119019
0.0338745
-0.0366211
-0.0823975
-0.0619507
-0.0357056
0.00427246
0.000915527
-0.0271606
-0.0634766
-0.123901
-0.124817
-0.134888
-0.134583
-0.0311279
0.09552
0.137024
0.0900269
0.0408936
-0.00610352
-0.0213623
-0.0128174
0.0338745
0.0521851
0.0454712
0.0326538
0.000610352
0.0140381
0.039978
0.0653076
0.0698853
0.0646973
0.00854492
-0.0537109
-0.0906372
-0.0650024
-0.0100708
0.0213623
0.0494385
0.0436401
0.0372314
0.0466919
0.0723267
0.0778198
0.0689697
0.0119019
-0.0616455
-0.0842285
-0.101624
-0.110779
-0.0552368
-0.022583
-0.0256348
0.010376
0.0695801
0.0802612
0.098877
0.129089
0.120239
0.0930786
0.111084
0.0708008
-0.0146484
-0.0289917
-0.0375366
-0.071106
-0.0808716
-0.0469971
-0.00549316
-0.00732422
0.00366211
0.0128174
0.00701904
-0.0137329
-0.0466919
-0.0500488
-0.0582886
-0.0317383
-0.00640869
-0.00396729
0.00701904
0.0134277
0.022583
0.0137329
0.0408936
0.0427246
0.0588989
0.113831
0.154419
0.0918579
-0.0134277
-0.152893
-0.263977
-0.235291
-0.136719
-0.0738525
-0.0518799
-0.0418091
-0.0167847
0.0375366
0.0830078
0.0921631
0.0799561
0.038147
0.00518799
-0.0280762
-0.0784302
-0.115662
-0.105286
-0.106506
-0.130615
-0.130005
-0.00579834
0.0808716
0.100708
0.09552
0.0836182
0.03479
-0.00946045
0.0289917
0.0604248
0.0744629
0.0762939
0.0588989
-0.00793457
-0.0540161
-0.0762939
-0.109558
-0.133667
-0.118103
-0.0973511
-0.0454712
-0.0170898
-0.0631714
-0.0973511
-0.09552
-0.110168
-0.130005
-0.102539
-0.0561523
-0.0445557
-0.0698853
-0.06073
0.0088501
0.045166
0.0561523
0.0750732
0.06073
0.0161743
-0.0427246
-0.083313
-0.11322
-0.11322
-0.0390625
0.0814819
0.153198
0.141296
0.088501
0.0424194
0.039978
0.0375366
0.0637817
0.0546265
0.0308228
-0.00488281
-0.0418091
-0.0772095
-0.112
-0.149536
-0.153503
-0.0961304
-0.0610352
-0.0637817
-0.015564
0.0152588
0.0180054
0.00183105
0.0164795
0.0262451
-0.00457764
-0.010376
0.0622559
0.0759888
0.0222778
-0.0601196
-0.0723267
-0.020752
-0.015564
0.0488281
0.110779
0.126038
0.106506
0.0918579
0.03479
-0.0515747
-0.0820923
-0.0552368
-0.0640869
-0.0338745
-0.0128174
0.0134277
0.0350952
0.0772095
0.12085
0.140381
0.0881958
-0.00244141
-0.0668335
-0.0494385
-0.0344849
-0.017395
-0.0259399
-0.043335
-0.0372314
-0.0454712
-0.0375366
-0.0436401
-0.0350952
-0.0241089
-0.00488281
-0.0134277
0.0241089
0.0680542
0.0601196
0.0747681
0.0598145
0.0286865
-0.00305176
-0.0314331
-0.0628662
-0.0857544
-0.0973511
-0.0460815
-0.0109863
0.03479
0.0350952
0.0405884
0.0427246
0.027771
0.0280762
0.0115967
-0.00671387
-0.0216675
-0.0286865
-0.0189209
-0.00457764
-0.022583
-0.0888062
-0.0836182
-0.0601196
-0.067749
-0.0726318
0.00274658
0.0689697
0.112305
0.0628662
-0.0299072
-0.0759888
-0.0460815
-0.0567627
-0.107117
-0.0802612
-0.0378418
-0.0509644
-0.0088501
0.0692749
0.0933838
0.0839233
0.0720215
0.0875854
0.107117
0.0985718
0.0723267
0.0448608
-0.00732422
-0.0732422
-0.0930786
-0.0448608
0.0326538
0.0875854
0.0631714
-0.00457764
-0.071106
-0.0802612
-0.0509644
-0.0241089
0.0283813
0.0457764
0.043335
0.00335693
-0.0198364
-0.0177002
-0.0253296
-0.0088501
0.0485229
0.045166
0.0253296
0.0256348
0.0183105
0.00274658
-0.0088501
-0.0210571
-0.0012207
0.00762939
0.0314331
0.0686646
0.0875854
0.0656128
0.0241089
-0.0454712
-0.0637817
-0.0765991
-0.0601196
-0.00183105
0.0357056
0.0244141
-0.010376
-0.0253296
-0.00946045
0.0366211
0.0802612
0.114136
0.131531
0.0802612
-0.0320435
-0.0473022
-0.0204468
0.0109863
0.0460815
0.0537109
0.0640869
0.109253
0.12146
0.0778198
0
-0.0848389
-0.0927734
-0.102234
-0.11261
-0.109253
-0.107727
-0.101013
-0.0808716
-0.0296021
-0.0491333
-0.0350952
0.012207
0.0497437
0.0643921
0.03479
-0.0405884
-0.0802612
-0.112305
-0.0778198
-0.00366211
0.0674438
0.117188
0.118103
0.0933838
0.0799561
0.0643921
0.0509644
0.0366211
0.039978
0.0473022
0.072937
0.0579834
0.0354004
-0.0137329
-0.0256348
0.020752
0.0561523
0.0338745
0.0158691
0.00152588
-0.0189209
-0.00488281
0.0439453
0.113525
0.127869
0.0784302
0
-0.0714111
-0.0619507
-0.00152588
0.0363159
0.0686646
0.0878906
0.0857544
0.0653076
0.0408936
0.027771
0.0378418
0.0259399
-0.0280762
-0.0201416
0.0137329
0.0604248
0.0582886
0.0149536
0.0164795
0.0216675
0.0256348
0.0332642
0.0894165
0.133057
0.113525
0.0875854
0.0662231
0.0210571
-0.0286865
-0.0476074
-0.0704956
-0.0698853
-0.0390625
0.0262451
0.0592041
0.0473022
0.0289917
0.0231934
0.0219727
0.0534058
0.0671387
0.108337
0.143127
0.127869
0.0485229
-0.00457764
-0.0286865
-0.0256348
-0.0100708
0
-0.0125122
-0.0476074
-0.00610352
0.0540161
0.0970459
0.132751
0.137634
0.13031
0.0653076
0.0234985
-0.00793457
-0.0115967
-0.0534058
-0.0939941
-0.0933838
-0.0839233
-0.0756836
