0.00366211
-0.057373
0.106506
0.241699
0.193176
0.0540161
0.0476074
-0.0421143
-0.185852
-0.117493
0.0338745
0.0460815
-0.0341797
-0.0997925
-0.0674438
0.0698853
0.159302
0.203857
0.339661
0.457153
0.655212
0.732727
0.659485
0.542297
0.460815
0.315857
0.0964355
-0.231934
-0.37384
-0.246277
-0.109253
0.083313
0.179138
0.0875854
0.0341797
-0.0201416
-0.0671387
-0.0839233
-0.0802612
-0.150146
-0.166321
-0.0698853
0.0354004
0.195923
0.285034
0.274963
0.168152
0.123901
0.0610352
0.0405884
0.120544
0.29541
0.316772
0.189514
0.181885
0.375366
0.47821
0.492554
0.42511
0.26001
0.0134277
-0.267029
-0.30426
0.0994873
0.58197
0.804749
0.777893
0.519104
0.062561
-0.416565
-0.439758
-0.257874
-0.197449
-0.206299
-0.229187
-0.280457
-0.360718
-0.380859
-0.352173
-0.276489
-0.0817871
0.150146
0.348511
0.522461
0.65033
0.584106
0.599365
0.712585
0.618286
0.197449
-0.413513
-0.628052
-0.489807
-0.226746
0.182495
0.588074
0.788574
0.900879
0.649719
0.00396729
-0.499573
-0.712585
-0.657959
-0.492249
-0.1297
0.0454712
0.276184
0.524902
0.773315
0.818787
0.6073
0.0897217
-0.232849
-0.618286
-0.602417
-0.213623
0.0195312
-0.0454712
-0.275574
-0.344543
-0.141602
0.437012
0.52948
0.14801
-0.566711
-0.828247
-0.770874
-0.586243
-0.296326
0.0213623
0.262451
0.324707
0.184021
-0.274963
-0.289307
0.110168
0.340271
0.0363159
-0.334473
-0.543213
-0.446167
-0.392151
-0.316772
-0.247498
-0.296021
-0.259705
0.0332642
0.272827
0.331116
0.0616455
-0.443115
-0.4776
-0.273438
-0.0622559
0.093689
0.309448
0.638428
0.779724
0.682068
0.384521
-0.314026
-0.556946
-0.502319
-0.466614
-0.543213
-0.467224
-0.282898
-0.098877
-0.0253296
-0.0549316
-0.0942993
-0.0256348
0.0784302
0.184021
0.127563
0.0302124
-0.286865
-0.232849
-0.250244
-0.405884
-0.508728
-0.233154
0.0253296
0.0473022
-0.177612
-0.237732
0.0408936
0.232849
0.316772
0.336914
0.401306
0.378723
0.102234
-0.389404
-0.451965
-0.110168
0.123596
0.209961
0.00579834
-0.0869751
0.0289917
0.320129
0.216064
-0.325623
-0.693665
-0.514832
-0.307312
-0.23407
-0.0918579
0.391846
0.966492
1.05927
0.505066
-0.276794
-0.766296
-0.70343
-0.477295
-0.326233
-0.193176
0.0131226
0.215759
0.379333
0.276184
0.0149536
-0.160217
-0.0784302
0.0939941
0.0784302
-0.0442505
-0.205994
-0.185852
-0.0769043
-0.0335693
-0.0369263
-0.256958
-0.295105
-0.223389
-0.148315
-0.0723267
0.0531006
0.330811
0.445251
0.536499
0.316467
0.119934
0.148621
0.119019
-0.397644
-0.605774
-0.437317
-0.243835
-0.168762
-0.108948
-0.0332642
0.0262451
0.0601196
0.0543213
-0.0344849
-0.198364
-0.186768
0.0494385
0.305786
0.417786
0.320129
0.112305
0.0454712
0.043335
0.20813
0.505981
0.370789
0.244141
-0.263977
-0.608215
-0.437012
-0.117798
0.155945
0.475464
0.493469
0.452881
0.431519
0.0854492
-0.168762
-0.397034
-0.55481
-0.50415
-0.331421
-0.180664
-0.1828
-0.246277
-0.184937
0.0765991
0.318298
0.195923
0.0463867
0.0558472
0.126648
0.113525
-0.126038
-0.187683
-0.106201
0.0228882
0.123901
0.0823975
-0.123291
-0.229187
-0.20813
-0.112915
0.135498
0.525818
0.776367
0.793152
0.535889
0.0088501
-0.299988
-0.352173
-0.296326
-0.267944
-0.273132
-0.270996
-0.250244
-0.215454
-0.177307
-0.143127
-0.122986
-0.113525
-0.107727
-0.0793457
-0.0686646
0.0415039
0.153809
0.17334
0.0476074
-0.175476
-0.143127
-0.0549316
-0.00335693
0.0366211
0.130615
0.310364
0.356445
0.206909
0.017395
-0.168152
-0.0576782
0.0280762
0.0195312
0.0360107
0.143433
0.248108
0.305786
0.3479
0.224304
0.0265503
-0.323792
-0.378113
-0.345764
-0.291138
-0.21637
-0.0979614
0.0900269
0.192566
0.148926
-0.0482178
-0.18158
-0.217896
-0.175171
-0.114136
-0.0497437
0.0521851
0.103149
0.134583
0.108643
-0.0384521
-0.0289917
-0.0439453
-0.078125
-0.0552368
-0.0744629
-0.0863647
-0.0881958
-0.072937
-0.0366211
0.0582886
0.28656
0.493469
0.501709
0.316162
-0.0796509
-0.0238037
0.102844
0.00640869
0.0012207
-0.118713
-0.227661
-0.338745
-0.452271
-0.347595
-0.177002
-0.0515747
-0.00640869
-0.00793457
-0.00396729
0.0808716
0.142517
0.351257
0.415649
0.370789
0.235291
0.00946045
-0.141602
-0.326538
-0.326233
-0.205994
-0.115051
-0.0613403
-0.0335693
-0.0283813
-0.0427246
-0.050354
-0.0445557
-0.0216675
0.0289917
0.0823975
0.113525
0.154114
0.109863
0.105896
0.169678
0.204163
0.161438
0.126648
0.101318
0.0869751
0.169373
0.13855
-0.196838
-0.469971
-0.393372
-0.267944
-0.204468
-0.13031
-0.0762939
-0.0515747
0.015564
0.0866699
0.0979614
0.0393677
-0.00823975
0.0790405
0.124512
0.0918579
0.0415039
-0.0881958
-0.112
-0.0506592
-0.00946045
0.0128174
-0.0326538
-0.0671387
-0.0662231
-0.0430298
0.00274658
0.0100708
0.00701904
0.0558472
0.126038
0.101929
0.0274658
-0.0942993
-0.123291
-0.0717163
0.000915527
0.201111
0.45929
0.595703
0.447998
0.0750732
-0.0924683
-0.211182
-0.36377
-0.400085
-0.298462
-0.180664
-0.125732
-0.112
-0.038147
0.057373
0.132141
0.144958
0.0799561
0.067749
0.0775146
0.0338745
-0.211792
-0.204773
-0.00335693
0.109253
0.0942993
0.00732422
-0.0717163
-0.119934
-0.105286
-0.039978
-0.039978
0.00518799
0.0595093
-0.00610352
-0.0521851
0.0311279
0.192566
0.270691
0.243835
0.0582886
-0.18219
-0.252075
-0.218506
-0.179443
-0.148315
-0.0393677
0.102844
0.208435
0.226746
0.139465
0.0488281
0.0289917
0.0604248
0.205994
0.350647
0.377197
0.325928
-0.0180054
-0.289612
-0.285034
-0.195923
-0.109253
-0.1474
-0.132446
-0.00762939
0.0805664
0.0830078
-0.0491333
-0.14801
-0.0326538
0.101318
0.146179
0.107422
0.0537109
0.0595093
0.0778198
0.0253296
-0.11261
-0.181274
0.0210571
0.388489
0.700684
0.647278
0.320129
-0.0808716
-0.221863
-0.3479
-0.370483
-0.296631
-0.249023
-0.230408
-0.211792
-0.1651
-0.0762939
0.0845337
0.197449
0.285339
0.146179
0.0405884
0.120544
0.195618
0.180969
-0.0241089
-0.169983
-0.236206
-0.176392
-0.107117
-0.0869751
-0.0802612
-0.0762939
-0.0213623
0.148621
0.253296
0.193481
0.039978
-0.137024
-0.135498
-0.0424194
0.0143433
0.072937
0.00488281
-0.107727
-0.166931
-0.173645
-0.0698853
0.098877
0.183716
0.291443
0.309753
0.240479
0.136414
-0.0189209
-0.12085
-0.114441
-0.108643
-0.0613403
-0.0692749
-0.0619507
-0.0421143
-0.0131226
-0.0256348
-0.0259399
0.0778198
0.259705
0.321045
0.140686
-0.105591
-0.312195
-0.258179
-0.038147
0.17395
0.268555
0.202942
0.0497437
-0.0537109
-0.0686646
-0.0323486
0.0152588
0.0445557
0.0360107
-0.102234
-0.178223
-0.0894165
0.0112915
0.0473022
-0.0274658
-0.107117
-0.0949097
-0.00793457
0.12207
0.13916
0.06073
0.0152588
0.0253296
0.0891113
0.0946045
0.0509644
-0.0540161
-0.0958252
-0.0857544
-0.00854492
0.0183105
-0.0280762
-0.0415039
-0.0610352
-0.0457764
-0.0180054
0.0628662
0.0634766
-0.00823975
-0.0653076
-0.0671387
-0.055542
-0.050354
-0.00732422
0.0311279
0.149231
0.321045
0.378723
0.284729
0.0308228
-0.1297
-0.107727
-0.102539
-0.133972
-0.111389
-0.0958252
-0.0366211
-0.0344849
-0.0228882
0.0799561
0.119324
0.119324
0.0430298
0.0289917
0.122986
0.0643921
-0.0747681
-0.209656
-0.23468
-0.111389
-0.00762939
-0.0509644
-0.119934
-0.125732
-0.0109863
0.113525
0.195007
0.180664
0.0704956
0.0299072
0.0387573
0.0390625
0.020752
-0.038147
-0.0640869
-0.0692749
-0.0543213
-0.0564575
-0.062561
-0.0515747
-0.00366211
0.0646973
0.104675
0.155945
0.132751
0.0546265
0.0402832
0.0305176
-0.0262451
-0.0775146
-0.172424
-0.149231
-0.072937
-0.0411987
-0.0320435
-0.0421143
-0.032959
-0.0341797
-0.0186157
0.012207
0.065918
0.0830078
0.0741577
0.0827026
0.0320435
-0.017395
-0.0259399
-0.00244141
-0.00152588
0.0189209
0.0259399
0.045166
0.142212
0.2771
0.386658
0.397034
0.204163
0.00427246
-0.0430298
-0.0448608
-0.0479126
-0.13916
-0.190735
-0.17395
-0.118408
-0.0308228
-0.0354004
-0.0146484
0.00946045
0.0112915
0.0280762
0.0628662
0.0631714
0.0524902
0.0265503
0.128479
0.174255
0.0921631
-0.0143433
-0.144348
-0.127258
-0.0802612
-0.0692749
-0.0119019
-0.0369263
-0.0521851
-0.0637817
-0.0744629
-0.0970459
-0.0604248
-0.0271606
0.027771
0.083313
0.106506
0.107117
0.140381
0.219116
0.370178
0.348816
0.0180054
-0.195312
-0.21759
-0.185852
-0.134277
-0.108337
-0.062561
-0.0247192
-0.00366211
0.0646973
0.117188
0.13031
0.0985718
0.111084
0.117188
0.128479
0.0842285
-0.0500488
-0.0918579
-0.0363159
0.0164795
0.0793457
0.139771
0.18219
0.11261
0.038147
-0.00762939
-0.0784302
-0.150452
-0.178833
-0.152588
-0.043335
0.0164795
0.027771
0.0668335
0.071106
0.0680542
0.062561
0.0350952
0.00457764
0.00701904
-0.0296021
-0.00457764
0.0488281
0.0949097
0.0830078
-0.00335693
-0.00793457
0.0506592
0.0701904
0.0537109
0.0231934
0.0158691
0.0259399
0.0601196
0.0506592
-0.017395
-0.0686646
-0.067749
-0.00762939
0.0680542
0.248413
0.346985
0.313416
0.256042
-0.0131226
-0.14679
-0.126038
-0.0653076
-0.0924683
-0.0549316
0.00518799
-0.00854492
-0.00457764
-0.0421143
-0.115356
-0.140991
-0.106506
-0.0759888
-0.0466919
-0.00457764
0.0305176
0.0167847
0.00427246
-0.0131226
-0.0161743
0.0268555
0.12085
0.140686
0.178223
0.12085
-0.0280762
-0.0784302
-0.0540161
-0.0512695
-0.00762939
0.0231934
0.0106812
-0.0241089
-0.0488281
-0.0320435
-0.050354
-0.0259399
0.0177002
0.0408936
0.0680542
0.0582886
0.0497437
0.0460815
0.0579834
0.0561523
0.015564
-0.0317383
-0.0567627
-0.0390625
-0.0317383
-0.00213623
0.0161743
0.0427246
0.0842285
0.050354
0.0247192
0.0180054
0.0271606
0.0317383
0.101013
0.242615
0.357361
0.380859
0.288696
0.0900269
-0.039978
-0.0582886
-0.0683594
-0.0952148
-0.101013
-0.101624
-0.0491333
0.110168
0.213928
0.276184
0.109253
-0.118408
-0.193481
-0.191345
-0.180359
-0.166321
-0.134583
-0.106201
-0.101318
-0.0778198
-0.0646973
-0.0317383
0.0012207
-0.0231934
-0.0183105
-0.00366211
0.00427246
0.00244141
-0.0143433
-0.0143433
-0.00854492
-0.00335693
-0.00366211
-0.0177002
-0.0283813
-0.0283813
-0.00732422
0.0219727
0.0375366
0.0427246
0.0311279
0.0234985
0.0192261
0.0143433
0.00396729
0.00701904
0.00213623
-0.0119019
0.00213623
0.0109863
0.0146484
0.0167847
0.0253296
0.0314331
0.0402832
0.0296021
0.0302124
0.0201416
0.0195312
0.0231934
0.0341797
0.0360107
0.0402832
0.0390625
0.0354004
0.0262451
0.0280762
0.0305176
0.0354004
0.0253296
0.0280762
0.0442505
0.0430298
0.055542
0.057373
0.057373
0.0604248
0.0671387
0.0775146
0.0894165
0.0967407
0.09552
0.0918579
0.0976562
0.120544
0.123596
0.119629
0.103455
0.102844
0.10498
0.109558
0.101318
0.0949097
0.0772095
0.0680542
0.0888062
0.0949097
0.10437
0.093689
0.102234
0.106201
0.111084
0.119019
0.1297
0.137329
0.148926
0.153809
0.162964
0.158386
0.140991
0.118408
0.0863647
0.0784302
0.0668335
0.0762939
0.0860596
0.0845337
0.0942993
0.0976562
0.0961304
0.0997925
0.105286
0.109253
0.105286
0.0967407
0.101013
0.0994873
0.0924683
0.0888062
0.0708008
0.0704956
0.071106
0.055542
0.0485229
0.0515747
0.0485229
0.0439453
0.0457764
0.0375366
0.0363159
0.0457764
0.055542
0.0570679
0.0543213
0.043335
0.0375366
0.0363159
0.0350952
0.038147
0.0357056
0.0241089
0.0302124
0.0137329
0.0167847
0.0164795
0.0149536
0.00183105
-0.0125122
-0.0216675
-0.0421143
-0.022583
-0.0112915
-0.0115967
-0.0198364
-0.0299072
-0.0219727
-0.0421143
-0.0531006
-0.0457764
-0.0354004
-0.038147
-0.0515747
-0.0552368
-0.0344849
-0.0186157
-0.0198364
-0.0256348
-0.0283813
-0.0271606
-0.0366211
-0.0375366
-0.0466919
-0.0537109
-0.0469971
-0.0497437
-0.045166
-0.0332642
-0.050354
-0.0646973
-0.0708008
-0.0830078
-0.067749
-0.0863647
-0.0814819
-0.0753784
-0.0701904
-0.0637817
-0.0552368
-0.0588989
-0.0616455
-0.0582886
-0.0601196
-0.065918
-0.0610352
-0.0631714
-0.0772095
-0.0888062
-0.0909424
-0.0964355
-0.107117
-0.0985718
-0.102234
-0.0997925
-0.10437
-0.0952148
-0.0857544
-0.0842285
-0.0921631
-0.115356
-0.119934
-0.117493
-0.107117
-0.0942993
-0.09552
-0.0942993
-0.0915527
-0.098877
-0.108643
-0.10376
-0.105591
-0.0958252
-0.0997925
-0.118408
-0.140076
-0.110779
-0.0970459
-0.0991821
-0.0982666
-0.117188
-0.119324
-0.103149
-0.0915527
-0.10376
-0.104675
-0.103455
-0.101929
-0.112915
-0.111694
-0.118103
-0.124512
-0.125427
-0.123901
-0.115967
-0.0982666
-0.0958252
-0.0964355
-0.103455
-0.088501
-0.072937
-0.0796509
-0.0845337
-0.0796509
-0.0653076
-0.0750732
-0.0805664
-0.0650024
-0.0857544
-0.0863647
-0.0894165
-0.0918579
-0.0967407
-0.0869751
-0.0741577
-0.0534058
-0.0460815
-0.0515747
-0.0387573
-0.0418091
-0.0442505
-0.0521851
-0.06073
-0.0668335
-0.0720215
-0.0772095
-0.0656128
-0.0411987
-0.0292969
-0.0192261
-0.0311279
-0.0326538
-0.0341797
-0.0396729
-0.0460815
-0.0411987
-0.0341797
-0.0247192
-0.0283813
-0.0247192
-0.0320435
-0.0274658
-0.0296021
-0.0463867
-0.0482178
-0.0274658
-0.0332642
-0.0344849
-0.0332642
-0.0332642
-0.0216675
-0.0183105
-0.027771
-0.0216675
-0.00701904
0.0088501
0.0152588
0.00579834
-0.00335693
-0.0106812
-0.0219727
-0.0177002
-0.00915527
-0.0244141
-0.0265503
-0.0320435
-0.022583
0.0228882
0.0546265
0.0479126
-0.0143433
-0.0244141
0.000305176
0.0387573
0.0393677
0.020752
0.00823975
-0.00854492
-0.00640869
-0.0222778
-0.0167847
-0.015564
-0.0109863
-0.00762939
-0.0146484
0.0012207
-0.0247192
-0.0491333
-0.0479126
-0.00701904
0
-0.00701904
-0.00793457
0.0161743
0.0491333
0.0527954
0.0222778
0.000915527
-0.00152588
0.00671387
0.00549316
0.00823975
0.0213623
-0.00579834
-0.0534058
-0.0656128
-0.017395
0.0314331
0.0418091
0.0134277
0.0088501
-0.0088501
0.0152588
0.00823975
0.0115967
0.0271606
0.0512695
0.0384521
0.0109863
0.00946045
0.0216675
0.0375366
0.0152588
0.0143433
0.0289917
0.0253296
0.0256348
0.0201416
0.0289917
0.0192261
-0.0158691
-0.0115967
-0.00579834
0.000305176
0.0186157
0.000915527
-0.0137329
0.0152588
0.020752
0.0317383
0.0567627
0.0878906
0.0961304
0.0686646
0.0488281
0.0198364
-0.0350952
-0.0454712
0.0280762
0.0695801
0.0610352
0.0494385
0.0665283
0.0842285
0.0753784
0.0744629
0.0479126
0.0134277
0.0408936
0.0869751
0.0970459
0.067749
0.0192261
-0.0100708
-0.0210571
-0.00762939
0.0177002
0.0479126
0.0708008
0.0552368
0.0244141
0.0131226
0.0491333
0.126648
0.151367
0.1297
0.11322
0.0759888
0.0314331
0.0244141
0.0357056
0.0698853
0.100403
0.113831
0.125732
0.142822
0.0598145
-0.00427246
-0.0198364
-0.0177002
-0.0198364
0.00946045
0.0415039
0.039978
0.0250244
0.00152588
0.00152588
0.0283813
0.0167847
0.0244141
0.0256348
-0.0320435
-0.0402832
-0.0265503
-0.0149536
0.020752
0.0140381
0.00610352
-0.0161743
-0.0259399
-0.0296021
-0.0213623
0.00946045
0
0.0170898
0.0125122
-0.00976562
-0.0289917
-0.0378418
0.00274658
0.0317383
0.0265503
0.0363159
0.0244141
-0.00671387
-0.0302124
-0.0469971
-0.0128174
0.0418091
0.0671387
0.0473022
0.0250244
0.0344849
0.0354004
0.0244141
0.0344849
0.0164795
-0.00518799
-0.0137329
0.00305176
0.0106812
0.000915527
0.0100708
0.015564
0.0369263
0.0268555
0.0250244
0.0369263
0.0241089
0.0305176
0.0408936
0.0256348
0.00457764
0.0109863
0.0106812
0.0552368
0.0369263
0.0457764
0.0216675
0.0354004
0.0479126
0.0640869
0.0732422
0.0350952
0.00427246
0.0204468
0.0396729
0.0643921
0.0405884
-0.00488281
-0.0152588
0.0244141
0.0384521
0.0350952
0.0228882
0.0372314
0.0344849
0.000915527
-0.0143433
-0.0344849
-0.0109863
0.0247192
0.0408936
0.0167847
-0.00488281
-0.0463867
-0.0576782
-0.0167847
0.027771
0.0119019
0.00915527
0.0112915
0.0192261
0.0308228
0.0189209
0.00671387
0.0167847
0.0262451
0.0152588
-0.0183105
0.0106812
0.0543213
0.00488281
-0.0588989
-0.0601196
-0.0375366
-0.00610352
0
0.0125122
0.0219727
0.0250244
0.000610352
0.000305176
0.0350952
0.0637817
0.0680542
0.0296021
-0.0167847
-0.039978
-0.0149536
0.0424194
0.0424194
0.0189209
0.00427246
-0.0259399
-0.0286865
-0.0137329
0.00671387
0.050354
0.071106
0.0546265
0.0231934
0.0244141
0.0234985
0.0112915
0.0244141
0.0402832
0.0268555
0.0244141
0.0512695
0.0448608
0.0354004
0.0158691
0.0244141
0.0256348
0.0128174
0.0216675
0.00946045
0.0125122
0.0311279
0.0448608
0.0515747
0.0320435
0.0289917
0.0265503
0.0256348
0.043335
0.0561523
0.055542
0.0421143
0.0152588
-0.00488281
-0.0201416
-0.0476074
-0.0424194
-0.00793457
0.0274658
0.0299072
-0.00518799
-0.0167847
-0.0146484
-0.0274658
-0.0613403
-0.0119019
0.0430298
0.0469971
0.0234985
-0.00366211
-0.00823975
0.0204468
-0.0106812
-0.00610352
0
0.00671387
0.0183105
0.0323486
0.0109863
-0.0192261
-0.0311279
0.00518799
-0.00488281
-0.0299072
-0.0112915
-0.0109863
-0.00183105
0.010376
0.0259399
0.0228882
-0.00549316
-0.0265503
0.0158691
0.012207
-0.0143433
-0.0164795
0.032959
0.0384521
0.0363159
-0.0167847
-0.0579834
-0.022583
0.00762939
0.0299072
0.0378418
0.0466919
0.0622559
0.020752
0.00457764
0.0140381
0.015564
0.0469971
0.0344849
0.022583
-0.00793457
-0.0314331
-0.0650024
-0.0558472
-0.0378418
0
0.0119019
0.0167847
0.0354004
0.0192261
0.0280762
0.0167847
0.00640869
0.0170898
0.0106812
0.0115967
0.00396729
-0.00396729
0.00213623
-0.0265503
-0.0283813
-0.0131226
-0.00762939
-0.000915527
-0.00457764
0.00946045
0.0384521
0.0582886
0.027771
0.0341797
0.00701904
-0.00274658
0.0158691
0.0115967
0.0143433
0.0280762
-0.0012207
0.0201416
0.0332642
0.0460815
0.0320435
0.00213623
0.0314331
0.0393677
-0.0164795
-0.0387573
0.00946045
0.0247192
0.0228882
0.0280762
0.0439453
0.0497437
0.0335693
0.0637817
0.050354
0.0363159
0.0485229
0.0241089
0.0311279
0.0186157
0.0222778
0.015564
-0.0158691
-0.0198364
-0.0012207
0.00518799
0.0283813
0.0454712
0.0354004
0.00213623
-0.0183105
-0.0250244
0.000305176
-0.0115967
-0.00701904
0.00396729
0.00579834
-0.00518799
0.0326538
0.0354004
0.0241089
-0.00213623
0.0222778
0.0506592
0.0302124
0.00244141
-0.00488281
0.0119019
-0.0143433
-0.015564
-0.00488281
0.0100708
-0.00274658
-0.00823975
-0.0149536
-0.00762939
-0.00732422
0.00335693
0.00671387
0.0189209
0.00671387
-0.0271606
-0.0363159
-0.027771
-0.0228882
-0.0317383
-0.0424194
-0.050354
-0.0338745
-0.0137329
0
0.0222778
0.0244141
0.0183105
0.00549316
0.00610352
0.0228882
0.0402832
0.0213623
-0.012207
-0.0262451
-0.0228882
-0.0405884
-0.0360107
-0.0296021
-0.0274658
-0.0216675
-0.00152588
-0.0137329
-0.0323486
-0.0158691
-0.00610352
0.0146484
-0.012207
-0.0198364
-0.0222778
0.0216675
0.000915527
-0.0219727
-0.0210571
-0.00518799
0.00213623
0.00579834
0.0115967
0.00610352
-0.00213623
-0.017395
-0.0253296
-0.0448608
-0.0473022
-0.0213623
-0.017395
-0.00793457
-0.00854492
-0.0161743
-0.0149536
-0.0119019
-0.00671387
-0.0146484
-0.0198364
-0.0262451
-0.022583
-0.0186157
-0.0372314
-0.0286865
-0.0320435
-0.0357056
-0.0534058
-0.0228882
0.010376
0.027771
0.000610352
-0.0341797
-0.0518799
-0.0515747
-0.0506592
-0.0314331
-0.0332642
-0.0323486
-0.0323486
-0.0418091
-0.0286865
-0.0216675
-0.0204468
-0.0128174
-0.00579834
-0.0210571
-0.0238037
-0.00274658
0.00579834
-0.0128174
-0.0186157
-0.012207
-0.0161743
-0.0180054
-0.0219727
-0.0134277
0.00213623
-0.022583
-0.017395
-0.00457764
0.00854492
0.000915527
0.00701904
-0.00762939
-0.0106812
-0.0186157
0
0.0161743
0.0369263
0.00366211
-0.0360107
-0.0479126
-0.072937
-0.0698853
-0.0613403
-0.0460815
0.012207
0.0686646
0.0808716
0.027771
-0.0198364
-0.022583
-0.0192261
0.00640869
0.0204468
0.0442505
0.0320435
-0.00396729
-0.0161743
0.00213623
0.0134277
0.0140381
0.00244141
0.0012207
-0.0119019
-0.0164795
-0.0314331
-0.027771
-0.0253296
-0.0335693
-0.0100708
-0.0128174
0.00366211
0.0280762
0.0177002
-0.0128174
-0.0213623
-0.0112915
0.00396729
0
0.0149536
0.0146484
0.012207
0.0213623
0.0189209
0.0231934
0.0369263
0.0201416
0.0305176
0.0314331
0.0366211
0.0326538
0.0268555
0.0201416
0.0177002
0.0311279
0.06073
0.0482178
0.0234985
0.0241089
0.0219727
0.0296021
0.0280762
0.0338745
0.0561523
0.0491333
0.0363159
0.0354004
0.0140381
0.0265503
0.0424194
0.0463867
0.0762939
0.0704956
0.03479
0.0219727
0.00701904
0.00854492
0.0134277
0.0125122
0.0137329
0.0164795
-0.00549316
0.0125122
0.0192261
0.039978
0.0180054
0.00579834
0.0296021
0.0250244
0.027771
0.045166
0.0112915
-0.0192261
-0.0134277
-0.0183105
-0.00244141
0.0375366
0.0274658
0.0180054
0.0231934
0.0112915
0.0134277
-0.0183105
-0.032959
-0.0311279
-0.0234985
0.00762939
0.0189209
0.022583
0.0317383
0.032959
0.0247192
0.0393677
0.0436401
0.0305176
0.00488281
-0.0106812
0.00488281
0.0344849
0.0634766
0.0512695
0.0296021
-0.00488281
-0.00854492
0.00946045
0.015564
0.00946045
0.0167847
0.0244141
0.0204468
0.0338745
0.0289917
0.0167847
-0.0161743
-0.0131226
-0.0115967
-0.0234985
-0.0268555
-0.00579834
0.0134277
0.0115967
0.00488281
0.00671387
0.0192261
0.0289917
0.0344849
0.0344849
0.0366211
0.027771
0.0262451
0.0213623
0.0228882
0.0143433
0.0131226
0.0201416
0.0332642
0.0283813
0.0274658
0.0170898
0.00671387
0.00915527
0
-0.00579834
0.00427246
0.00457764
-0.0088501
0.00152588
0.0106812
0.0198364
0.0137329
0.017395
0.0363159
0.0424194
0.0439453
0.0299072
0.00732422
0.00976562
0.022583
0.0411987
0.022583
0
-0.00762939
0.0119019
0.0241089
-0.00335693
-0.0109863
0.0231934
0.0595093
0.0354004
0.00823975
0.0164795
0.032959
0.0588989
0.0286865
0.0167847
0.0112915
0.0454712
0.039978
-0.00213623
-0.0100708
0.0112915
0.0357056
0.0512695
0.0317383
0.0296021
0.0280762
0.0250244
0.0296021
0.0253296
0.0231934
0.0186157
0.0216675
0.0262451
0.0161743
0.0213623
0.0280762
0.0369263
0.045166
0.0302124
0.0524902
0.0643921
0.0280762
0.0134277
0.00274658
0.0479126
0.0598145
0.0317383
0.0256348
0.012207
0.0146484
0.0192261
0.0308228
0.0354004
0.0457764
0.0363159
0.0100708
0.0265503
0.0488281
0.0375366
0.0244141
0.0262451
0.0146484
0.0088501
0.000610352
-0.00518799
0.0259399
0.0268555
0.00823975
0.0140381
0.0143433
0.0109863
0.0115967
0.00762939
0.00396729
0.0125122
0.00549316
0.00823975
0.0189209
-0.00396729
0.00213623
-0.00274658
0.00213623
0.00213623
-0.0149536
-0.022583
0.0146484
0.0271606
0.0338745
0.015564
0.0012207
-0.00762939
-0.0396729
-0.0271606
-0.0115967
0.00579834
0.00640869
0.0119019
0.00854492
-0.00732422
-0.0186157
-0.0167847
-0.0109863
-0.0125122
-0.0247192
-0.043335
-0.0463867
-0.0140381
0.00640869
0.00488281
-0.0167847
-0.0170898
-0.00457764
0.00610352
0
0.00732422
-0.017395
-0.0427246
-0.0549316
-0.0308228
-0.0363159
-0.0253296
-0.0131226
-0.00854492
-0.0219727
-0.0234985
-0.0244141
-0.0131226
-0.00701904
-0.00762939
-0.0210571
-0.0341797
-0.0482178
-0.0314331
-0.015564
-0.0106812
-0.03479
-0.0137329
0.00579834
0.0189209
0.0296021
0.00183105
-0.0201416
-0.0363159
-0.032959
-0.0289917
-0.0408936
-0.0494385
-0.0497437
-0.0424194
-0.0271606
-0.0180054
-0.00549316
-0.00701904
-0.0152588
-0.00610352
-0.00244141
0
-0.00823975
-0.0100708
-0.0170898
-0.0134277
-0.00946045
-0.0106812
-0.00732422
-0.00183105
-0.00762939
-0.012207
-0.00579834
0.000305176
-0.0140381
0.00335693
0.000915527
0.0231934
0.0259399
0.0262451
0.0192261
0.0350952
0.0262451
0.0231934
0.0228882
0.012207
0.00640869
0.0143433
0.0149536
0.0137329
0.0109863
0.00793457
0
-0.0137329
-0.0161743
-0.0201416
-0.0341797
-0.0430298
-0.0418091
-0.0195312
-0.0125122
0.00213623
-0.0198364
-0.0363159
-0.0439453
-0.0390625
-0.0436401
-0.0405884
-0.0448608
-0.057373
-0.0534058
-0.0289917
0.00823975
0.065918
0.0979614
0.0949097
0.0854492
0.078125
0.0823975
0.0540161
-0.0119019
-0.0549316
-0.0436401
-0.032959
-0.0283813
-0.0210571
-0.00854492
0.0180054
0.0787354
0.120544
0.109253
0.0558472
0.0241089
0.0320435
0.0253296
-0.0784302
-0.19043
-0.228271
-0.154724
-0.0274658
0.0158691
-0.0616455
-0.103149
-0.0811768
-0.03479
-0.0387573
-0.170898
-0.273743
-0.209961
-0.0964355
-0.0653076
-0.0927734
-0.118103
-0.0482178
0.0930786
0.078125
0.0244141
0.0271606
0.0744629
0.110168
0.0296021
-0.0662231
-0.0326538
0.0506592
0.0753784
0.0744629
0.0289917
0.0485229
0.107117
0.133362
0.072937
-0.0152588
-0.140381
-0.325928
-0.570068
-0.787659
-0.819397
-0.623779
-0.269775
0.14679
0.418091
0.618896
0.653992
0.583496
0.491333
0.408936
0.0634766
-0.393677
-0.805054
-0.860901
-0.56488
-0.188293
0.0970459
0.269165
0.409851
0.528564
0.61676
0.619812
0.492859
0.266724
-0.0387573
-0.239563
-0.307312
-0.218201
-0.0222778
0.227356
0.441589
0.43335
0.233765
-0.00244141
-0.180664
-0.293884
-0.335693
-0.292358
-0.133362
0.109253
0.109863
0.169067
0.285339
0.202942
-0.109863
-0.343018
-0.328369
-0.289917
-0.245361
-0.15564
-0.0363159
-0.00823975
0.140381
0.267029
0.487366
0.567627
0.500793
0.450745
0.509338
0.614319
0.421143
0.118103
0.120544
0.16449
0.0265503
-0.202942
-0.259094
-0.106201
0.0216675
0.141907
0.238647
0.305481
0.310059
0.0857544
-0.167542
-0.292358
-0.18219
0.0918579
0.365295
0.45166
0.278931
0.220642
0.33783
0.430908
0.389099
0.17395
-0.0253296
-0.13031
-0.149231
-0.0805664
-0.132751
-0.176392
-0.180969
-0.109558
-0.00518799
0.155945
0.285034
0.578918
0.806274
0.780945
0.639343
0.350952
-0.0299072
-0.354004
-0.194397
0.0311279
0.0198364
0.0314331
0.0866699
0.16449
0.358887
0.405884
0.3302
0.239868
0.0387573
-0.365601
-0.393677
-0.203552
-0.112
-0.0509644
-0.0900269
-0.159302
-0.150757
0.00396729
0.218811
0.552063
0.91217
1.00098
0.797424
0.288391
-0.453491
-1.23322
-1.34613
-1.0321
-0.798645
-0.4422
0.0723267
0.295715
0.331726
0.164795
-0.232239
-0.294189
-0.353394
-0.479736
-0.567932
-0.796204
-0.876465
-0.813293
-0.725708
-0.509338
-0.134583
0.228882
0.518188
0.381165
0.100403
-0.224915
-0.523376
-0.612793
-0.498047
-0.401001
-0.206909
0.0787354
0.419617
0.552063
0.234375
-0.134888
-0.328369
-0.300598
0.111389
0.612793
0.915222
0.785522
0.115662
-0.640869
-0.975037
-0.863342
-0.656433
-0.640564
-0.603333
-0.4953
-0.301514
-0.143127
-0.0527954
0.0241089
-0.0497437
-0.0231934
0.0189209
-0.0527954
-0.162659
-0.216064
0.0332642
0.246582
0.26123
0.303345
0.224304
-0.252075
-0.518494
-0.502319
-0.274963
-0.0808716
0.00488281
0.346375
0.931091
1.56952
1.61987
0.498962
-0.664062
-0.939636
-0.694275
-0.432129
-0.199585
0.0143433
0.25116
0.180969
0.0561523
0.106812
0.0552368
0.1828
0.247192
0.0662231
-0.174255
-0.333862
-0.403748
-0.406799
-0.394897
-0.333862
-0.0939941
0.137329
0.189209
-0.0198364
-0.281982
-0.24292
0.0115967
0.0802612
0.16571
0.151367
-0.00854492
0.292664
0.402527
0.321045
0.350342
0.0839233
0.0643921
0.166626
0.257568
0.281067
0.270386
0.276489
0.0982666
0
-0.110474
-0.414124
-0.226746
0.312805
0.612793
0.555115
-0.0350952
-0.455933
-0.506897
-0.227356
0.0485229
0.0759888
0.0692749
0.15564
0.405579
0.280457
-0.107727
-0.439453
-0.336914
-0.103149
-0.057373
0.0140381
0.206909
0.572205
0.704041
0.435486
0.159302
0.0973511
0.0918579
-0.44342
-0.564575
-0.370178
-0.0979614
0.0198364
-0.11322
-0.117798
0.00640869
0.221863
0.176392
0.109863
0.204163
0.635071
0.997314
0.883179
0.212708
-0.556946
-0.695801
-0.542908
-0.393066
-0.237732
-0.161438
-0.132751
0.151672
0.514221
0.651245
0.395813
-0.238342
-0.354004
-0.245667
-0.136108
-0.124207
-0.0894165
0.0247192
0.136108
0.17395
0.0793457
0.0567627
0.0695801
0.346375
0.561218
0.415344
-0.153503
-0.363464
-0.313416
-0.196228
-0.105896
-0.102539
-0.0643921
0.0497437
0.232544
0.170288
0.0463867
0.00335693
-0.0866699
-0.0366211
-0.0125122
-0.0744629
0.098877
0.234375
0.06073
0.0201416
-0.0112915
0.119019
0.506592
0.719299
0.675964
0.18219
-0.0213623
0.458679
0.929565
0.832825
-0.0997925
-0.818787
-0.819397
-0.667725
-0.487061
-0.225525
-0.0222778
0.121155
0.071106
-0.231628
-0.426941
-0.411072
-0.2948
-0.110168
0.0720215
0.410767
0.570374
0.396729
-0.160217
-0.487366
-0.414124
-0.106201
0.0164795
-0.0460815
-0.0650024
-0.0665283
-0.0756836
-0.0323486
0.071106
0.113831
-0.0933838
-0.148621
-0.18219
-0.0906372
0.0167847
0.188599
0.404663
0.572205
0.516663
0.269165
0.050354
0.00640869
-0.0808716
-0.245972
-0.247803
-0.176392
-0.13916
-0.138855
-0.0585938
0.127869
0.267029
0.322571
0.142517
0.149536
0.0808716
-0.043335
0.0192261
-0.170898
-0.287476
-0.246887
-0.161743
-0.0994873
-0.0689697
-0.045166
0.00305176
0.0119019
0.0894165
0.0363159
0.0201416
-0.0234985
0.0509644
0.186462
0.1474
-0.0866699
-0.205383
-0.322571
-0.383911
-0.322571
-0.108032
0.0332642
0.0405884
0.0357056
0.0869751
0.228882
0.37384
0.448914
0.334167
0.125427
-0.151062
-0.299072
-0.169067
0.272522
0.597839
0.596924
0.378723
-0.0350952
-0.23407
-0.240479
-0.316162
-0.369873
-0.238953
-0.128479
-0.109253
-0.140991
-0.12207
-0.147705
-0.153198
-0.0820923
-0.00823975
0.0765991
0.118713
0.163879
0.128174
-0.03479
-0.115967
-0.131836
-0.0735474
-0.0393677
-0.0714111
-0.0900269
-0.0582886
0.0619507
0.0778198
-0.0299072
-0.0320435
-0.166016
-0.248108
-0.170593
-0.03479
0.0427246
0.174255
0.296021
0.295715
0.213928
-0.117493
-0.355225
-0.262756
-0.158386
-0.0738525
-0.0305176
-0.0454712
-0.0363159
-0.0479126
-0.0436401
-0.0970459
-0.118713
-0.0799561
-0.0247192
0.0891113
0.263367
0.303345
0.2948
0.295715
0.0689697
0.10376
0.138855
0.262756
0.234985
0.00305176
-0.17334
-0.344238
-0.301514
-0.272217
-0.281067
-0.229187
-0.138245
-0.0344849
0.020752
0.043335
0.0558472
0.109253
0.222778
0.264282
0.253601
0.0613403
-0.20752
-0.323181
-0.361938
-0.316772
-0.175171
-0.0177002
0.0622559
0.1297
0.249329
0.413513
0.465698
0.439148
0.237732
-0.179138
-0.211792
-0.133362
-0.157166
-0.263977
-0.320129
-0.327454
-0.309753
-0.222473
-0.0250244
0.0939941
0.198364
0.395813
0.466003
0.403748
0.187683
0.0286865
-0.1651
-0.293884
-0.19043
-0.0494385
-0.0128174
-0.0531006
-0.0930786
-0.0244141
-0.0137329
-0.137024
-0.218506
-0.180969
-0.182495
-0.105896
-0.090332
-0.0918579
-0.0302124
0.0280762
0.0875854
0.117493
0.166931
0.289917
0.3479
0.228577
0.0961304
-0.158997
-0.305481
-0.22583
-0.184631
-0.179443
-0.18219
-0.117493
-0.0115967
-0.00152588
0.00518799
0.0134277
0.0811768
0.15686
0.220642
0.157471
0.0512695
-0.0799561
-0.137634
-0.020752
0.130615
0.20874
0.207825
-0.012207
-0.169373
-0.196228
-0.189514
-0.143127
-0.0497437
0.012207
0.0668335
0.189514
0.129089
0.0457764
-0.109558
-0.17395
-0.0613403
0.0106812
0.103455
0.224304
0.233154
0.263062
0.235291
0.105286
0.0692749
-0.0582886
-0.142212
-0.204773
-0.151672
-0.0576782
-0.038147
-0.156555
-0.200806
-0.195618
-0.111084
-0.0228882
0.0888062
0.158386
0.170898
0.132141
-0.0466919
0.065918
0.193176
0.24292
0.10437
-0.220337
-0.248108
-0.202026
-0.141907
-0.0378418
0.0799561
0.154724
0.121155
-0.0521851
-0.083313
0.00823975
0.0930786
0.155945
0.142212
0.0192261
-0.129089
-0.175476
-0.150452
-0.114441
-0.129395
-0.144653
-0.167847
-0.0686646
0.0656128
0.145264
0.193787
0.210876
0.206909
0.209961
0.10437
-0.12207
-0.245056
-0.176086
-0.126343
-0.0927734
-0.0878906
-0.127258
-0.118103
-0.0289917
0.0918579
0.180969
0.126648
-0.0259399
-0.178223
-0.237122
-0.201111
-0.13855
-0.0592041
0.0378418
0.109863
0.131531
0.085144
-0.00701904
-0.0869751
-0.108643
-0.0564575
-0.0558472
-0.0674438
-0.0634766
0.00305176
0.0588989
0.088501
0.0289917
-0.0100708
0.0537109
0.169983
0.369568
0.574951
0.574646
0.39093
-0.132446
-0.631714
-0.540771
-0.323486
-0.184937
-0.105286
-0.0802612
-0.117798
-0.151367
-0.132446
-0.09552
-0.0378418
-0.0720215
-0.0994873
-0.0430298
0.102234
0.279541
0.350037
0.263672
0.00610352
-0.154419
-0.164795
-0.0933838
-0.0842285
-0.0982666
-0.119934
-0.111389
0.00427246
0.157776
0.273438
0.302429
0.241699
0.0714111
-0.0854492
-0.142822
-0.158997
-0.176086
-0.15686
-0.159912
-0.131531
-0.0881958
-0.0143433
0.0500488
0.180969
0.30426
0.270081
0.1297
-0.0115967
-0.166931
-0.167847
-0.0808716
0.0210571
0.0915527
0.0668335
-0.0253296
-0.0924683
-0.0888062
-0.0680542
-0.0363159
-0.00213623
0.0418091
0.0741577
0.197144
0.331116
0.313721
0.231934
0.148315
0.128479
0.0582886
-0.0311279
-0.0344849
-0.0933838
-0.111389
-0.119019
-0.0442505
0.0708008
0.174561
0.126953
-0.0640869
-0.126648
-0.0750732
0.0689697
0.160217
0.202942
0.134277
-0.057373
-0.0784302
-0.0308228
0.00152588
0.0842285
0.10498
0.0140381
-0.0180054
-0.0585938
-0.134583
-0.210266
0.111389
0.482178
0.560913
0.381165
0.160217
0.0848389
0.31189
0.308838
-0.0366211
-0.104675
-0.110779
-0.228271
-0.317383
-0.307922
-0.270081
-0.205994
-0.150452
-0.118713
-0.0979614
-0.0912476
-0.113831
-0.0308228
0.0863647
0.108032
0.160522
0.119324
0.0125122
-0.0979614
-0.145264
-0.133667
-0.142822
-0.0671387
-0.0283813
-0.0418091
-0.0393677
-0.0415039
-0.043335
-0.050354
-0.0231934
0.0192261
0.0360107
0.0570679
0.120544
0.22583
0.228577
0.0634766
-0.0582886
-0.0521851
0.0442505
0.181274
0.206909
0.265198
0.343018
0.306702
0.146484
0.00457764
-0.0369263
-0.0213623
0.00213623
0.0213623
0.155334
0.337219
0.335388
0.144043
-0.162354
-0.309448
-0.252991
-0.168762
-0.0296021
0.115662
0.195923
0.119324
-0.12146
-0.340881
-0.431213
-0.328674
-0.103455
0.0402832
0.149841
0.187988
0.146179
0.0900269
0.0613403
0.038147
0.0335693
-0.00335693
-0.038147
0.00946045
-0.0335693
0.0814819
0.149536
0.17395
0.184326
0.161133
0.0299072
-0.0747681
0.0106812
0.186157
0.24231
0.117188
-0.0979614
-0.33905
-0.423889
-0.339966
-0.204773
-0.0613403
0.0228882
0.105896
0.246887
0.270996
0.16449
-0.0183105
-0.150452
-0.14801
-0.102234
-0.0582886
-0.0457764
-0.03479
-0.0454712
-0.0671387
-0.062561
-0.0366211
0.0378418
0.0259399
-0.0088501
0.0973511
0.23407
0.227051
0.148621
-0.00366211
-0.0137329
0.154419
0.306702
0.314636
0.0619507
-0.262756
-0.427856
-0.326538
-0.0357056
0.179138
0.224304
0.173035
0.0753784
-0.0521851
-0.146179
-0.120239
-0.0485229
-0.0772095
-0.114441
-0.103455
-0.0592041
0.0430298
0.105591
0.151978
0.120544
-0.00701904
-0.0286865
-0.0296021
-0.00579834
0.00671387
-0.00549316
-0.0131226
-0.022583
-0.0415039
-0.027771
0.0131226
0.0308228
0.017395
-0.00366211
0
0.111389
0.162048
0.115051
0.0311279
-0.0579834
-0.0357056
-0.0177002
-0.0332642
-0.0256348
0.00701904
0.039978
0.088501
0.045166
-0.0112915
-0.065918
-0.0436401
-0.0241089
-0.0241089
0.038147
0.134888
0.185242
0.207214
0.147705
0.0402832
0.00274658
-0.0341797
-0.065918
-0.055542
-0.0341797
0.00152588
0.0543213
0.128479
0.186157
0.13092
0.0314331
-0.0735474
-0.179749
-0.203857
-0.14801
-0.0326538
0.114136
0.203857
0.20813
0.0894165
-0.0131226
-0.0588989
-0.0500488
-0.00366211
-0.00457764
-0.0527954
-0.0585938
-0.0323486
0.0540161
0.137634
0.162964
0.136414
-0.00640869
-0.119934
-0.0869751
-0.0274658
-0.0305176
-0.0473022
0.0137329
0.0985718
0.199585
0.179749
0.00854492
-0.0320435
-0.0418091
-0.045166
-0.0283813
-0.0479126
-0.0814819
-0.0875854
-0.0570679
-0.0131226
0.0314331
0.0491333
0.0125122
-0.0350952
0.0210571
0.0985718
0.13855
0.143127
0.128784
0.0888062
0.00946045
-0.0683594
-0.101318
-0.0930786
-0.0088501
0.0479126
0.0598145
0.0592041
0.0579834
-0.00274658
-0.00183105
0.000610352
-0.0100708
-0.00213623
-0.00793457
-0.0274658
-0.0543213
-0.0796509
-0.0457764
-0.0268555
-0.0198364
-0.00732422
-0.0119019
-0.0100708
-0.00915527
0.00610352
0.0320435
0.0183105
0.00457764
0.0106812
0.00701904
0.0192261
0.0314331
0.062561
0.0997925
0.126343
0.12146
0.0775146
0.0231934
0.017395
0.0314331
0.0128174
-0.0274658
-0.0704956
-0.0769043
-0.055542
0.00213623
0.0372314
0.0488281
0.0823975
0.116272
0.0790405
0.0219727
-0.00732422
0.00823975
0.0387573
0.0497437
0.00213623
-0.010376
0.0515747
0.078125
0.0616455
0.0793457
0.124207
0.133362
0.118408
0.109558
0.0653076
0.0396729
0.0463867
0.083313
0.0881958
0.0521851
0.00762939
-0.0259399
-0.0256348
-0.0137329
-0.00579834
0.00793457
0.0195312
0.00915527
0.0305176
0.0289917
0.0363159
0.0305176
0.0408936
0.0436401
0.050354
0.0622559
0.0595093
0.0518799
0.0411987
0.0299072
0.0210571
0.0332642
0.0344849
0.0430298
0.0457764
0.0497437
0.0509644
0.0604248
0.0692749
0.0662231
0.065918
0.0613403
0.0546265
0.0531006
0.057373
0.0576782
0.0585938
0.0567627
0.0579834
0.0723267
0.0680542
0.0762939
0.0769043
0.0708008
0.0747681
0.0796509
0.0814819
0.0823975
0.0888062
0.0866699
0.0793457
0.0817871
0.0839233
0.0723267
0.0595093
0.0714111
0.0656128
0.0738525
0.0460815
0.0500488
0.0500488
0.0610352
0.0680542
0.0674438
0.0579834
0.0546265
0.062561
0.0692749
0.0775146
0.0830078
0.0790405
0.0714111
0.0485229
0.0201416
0.00946045
0.0167847
0.0430298
0.0308228
0.0378418
0.0427246
0.0527954
0.0479126
0.032959
0.0247192
0.0170898
0.00854492
0.012207
0.0256348
0.00549316
0
0.0149536
0.00854492
0.0128174
0.0100708
0.00579834
0.00518799
0.0134277
0.00671387
-0.00152588
-0.0131226
-0.0134277
-0.0216675
-0.0198364
-0.010376
-0.0088501
-0.00946045
-0.0109863
-0.0164795
-0.0106812
-0.0219727
-0.027771
-0.0296021
-0.0234985
-0.0247192
-0.0210571
-0.0210571
-0.0152588
0
0.00213623
-0.00915527
-0.0170898
-0.0128174
-0.0372314
-0.0326538
-0.0387573
-0.0396729
-0.0415039
-0.0369263
-0.0256348
-0.0289917
-0.0262451
-0.0192261
-0.0158691
-0.0259399
-0.0292969
-0.03479
-0.0201416
-0.0152588
-0.0302124
-0.0311279
-0.0341797
-0.0302124
-0.0271606
-0.0314331
-0.0320435
-0.0366211
-0.0256348
-0.0210571
-0.0149536
-0.0112915
-0.0088501
-0.00457764
-0.00854492
-0.00579834
0
-0.0296021
-0.0500488
-0.043335
-0.038147
-0.0320435
-0.043335
-0.0405884
-0.0521851
-0.0543213
-0.062561
-0.0561523
-0.0598145
-0.0491333
-0.0378418
-0.0350952
-0.0308228
-0.0228882
-0.0186157
-0.0100708
-0.0183105
-0.0323486
-0.043335
-0.0527954
-0.0506592
-0.0515747
-0.0402832
-0.0320435
-0.0466919
-0.0579834
-0.0549316
-0.0704956
-0.0769043
-0.0628662
-0.0598145
-0.0869751
-0.108948
-0.0949097
-0.0643921
-0.0588989
-0.0335693
-0.0149536
-0.0186157
-0.0375366
-0.045166
-0.0341797
-0.0466919
-0.0564575
-0.0619507
-0.0741577
-0.0637817
-0.0866699
-0.0778198
-0.0747681
-0.0662231
-0.0738525
-0.0494385
-0.0357056
-0.032959
-0.0460815
-0.0665283
-0.0814819
-0.100708
-0.121155
-0.12207
-0.115662
-0.105591
-0.117493
-0.102234
-0.100403
-0.107727
-0.0869751
-0.0714111
-0.0704956
-0.0991821
-0.114441
-0.110474
-0.0738525
-0.0558472
-0.0396729
-0.0180054
-0.0198364
-0.0317383
-0.0390625
-0.0540161
-0.0552368
-0.0509644
-0.0436401
-0.0283813
0.022583
-0.0131226
-0.0650024
-0.0967407
-0.0906372
-0.101013
-0.117493
-0.0854492
-0.071106
-0.0723267
-0.0512695
-0.0546265
-0.0680542
-0.0540161
-0.0213623
0.0180054
0.00213623
0.0161743
0.00518799
-0.0134277
-0.0088501
-0.00518799
0.0146484
-0.0119019
-0.0256348
0.00366211
-0.0244141
-0.0491333
-0.0686646
-0.0231934
0.0222778
0.0439453
0.0186157
0.000305176
-0.0100708
-0.0131226
-0.027771
-0.0161743
-0.0186157
0.00854492
0.067749
0.0720215
0.0497437
0.00701904
-0.00671387
-0.0244141
0
0.0299072
0.0668335
0.0946045
0.0799561
0.0961304
0.0863647
0.0671387
0.0131226
0.0289917
0.0802612
0.0946045
0.100098
0.144043
0.168762
0.1297
0.101624
0.101624
0.0552368
0.0900269
0.145569
0.122986
0.118713
0.108948
0.0723267
0.0497437
0.090332
0.117493
0.126648
0.122375
0.105591
0.118408
0.108337
0.0814819
0.0564575
0.0540161
0.0582886
0.0869751
0.0848389
0.0497437
0.0192261
0.00305176
0.00854492
0.0396729
0.043335
0.0564575
0.0720215
0.111694
0.117493
0.111389
0.0909424
0.0942993
0.0622559
0.0540161
0.0393677
0.0253296
-0.00274658
0.0372314
0.0753784
0.0363159
-0.0396729
-0.0234985
0.0189209
0.0439453
0.0241089
-0.0198364
0.027771
0.0430298
0.0088501
0.0210571
0.00610352
-0.00274658
0.0292969
0.0274658
0.015564
-0.00305176
0.00396729
-0.00396729
-0.0271606
-0.0662231
-0.0323486
0.00518799
0.0320435
0.0576782
0.0726318
0.0454712
0.0115967
-0.0357056
-0.067749
-0.0466919
0.00549316
0.0741577
0.0692749
0.0201416
0.00274658
-0.010376
0.00915527
0.0442505
0.0485229
0.0140381
-0.0112915
-0.0192261
-0.0198364
-0.0195312
-0.00579834
0.00518799
0.0378418
0.0436401
0.00579834
-0.00366211
-0.0012207
0.015564
0.0375366
0.0317383
0.0311279
0.0253296
0.0119019
0.0485229
0.0799561
0.0650024
0.0527954
0.0613403
0.0756836
0.0775146
0.0692749
0.065918
0.0186157
0.0283813
0.0219727
0.015564
0.00305176
0.0177002
-0.00335693
-0.0128174
0.0146484
0.0250244
0.0271606
0.0445557
0.0164795
-0.0198364
-0.0247192
-0.0302124
-0.0167847
0.00640869
0.0588989
0.0372314
0.0317383
0.00366211
0.0247192
0.0491333
0.0500488
0.0222778
-0.0256348
-0.0262451
-0.00823975
0.000915527
-0.0106812
-0.00640869
-0.00488281
-0.0112915
-0.020752
-0.0149536
0.000915527
0.00274658
-0.00946045
-0.022583
-0.0305176
-0.0430298
-0.0396729
-0.0210571
-0.0149536
-0.0296021
-0.0210571
-0.0186157
-0.0268555
-0.0387573
-0.0387573
-0.0405884
-0.0308228
-0.0201416
-0.0119019
-0.0283813
-0.0411987
-0.0622559
-0.0634766
-0.0616455
-0.0518799
-0.0393677
-0.0692749
-0.0689697
-0.0271606
0.017395
0.00946045
-0.0405884
-0.0405884
-0.0582886
-0.0280762
-0.0296021
-0.0588989
-0.0772095
-0.0747681
-0.0469971
-0.0527954
-0.0772095
-0.0921631
-0.071106
-0.0790405
-0.0872803
-0.0631714
-0.0650024
-0.0656128
-0.0296021
-0.0375366
-0.0759888
-0.085144
-0.0308228
0.032959
0.043335
-0.00366211
-0.0201416
-0.0357056
-0.0473022
-0.0195312
-0.0250244
-0.0271606
-0.0296021
-0.0405884
-0.0454712
-0.0360107
-0.0222778
-0.00518799
0.00244141
-0.0012207
0
0.000610352
0.017395
0.0213623
0.0265503
0.0247192
0.0228882
0.0338745
0.0415039
-0.0125122
-0.0256348
-0.050354
-0.0524902
-0.0439453
-0.0231934
0.00854492
0.0466919
0.0378418
0.0106812
0.00274658
0.00305176
-0.00457764
0.000305176
0.00701904
0.015564
0.0241089
0.0344849
0.020752
0.0167847
-0.00396729
-0.0216675
-0.00244141
0.020752
0.0247192
0.0363159
0.0662231
0.0582886
0.0546265
0.0482178
0.0231934
0.00823975
0.00671387
0.00701904
0.00793457
-0.00946045
0.0317383
-0.00976562
0.0170898
0.0109863
-0.0143433
-0.0204468
-0.0149536
0.00427246
0.0195312
0.0271606
0.0216675
0.0299072
0.0305176
0.0338745
0.0421143
0.0241089
0.00335693
0.0137329
0.0198364
0.0134277
0.0170898
0.0186157
0.000915527
0.0177002
0.0259399
0.0335693
0.0271606
0.015564
-0.00946045
-0.0112915
0.0247192
0.0222778
-0.00274658
0.00549316
0.0411987
0.0469971
0.0268555
0.00152588
-0.00457764
0
0
0.0125122
0.0140381
0.0338745
0.0189209
0.0228882
0.0341797
0.03479
0.0335693
0.0314331
0.0238037
0.0164795
0.0247192
0.0201416
0.0210571
0.00732422
0.00946045
0.020752
0.00701904
-0.0143433
0.00152588
0.00518799
0.00915527
0.0216675
0.00183105
-0.015564
0.00396729
0.0167847
0.010376
-0.0112915
-0.0350952
-0.0497437
-0.0088501
0.020752
0.00732422
0.0219727
0.0344849
0.00946045
0.00274658
0.0183105
0.0241089
0.00823975
-0.0167847
0.00610352
0.00274658
-0.00274658
0.00213623
0.00335693
-0.0247192
0.00762939
0.00213623
-0.0183105
-0.0213623
-0.0109863
0.0137329
0.00915527
0.0183105
0.00213623
-0.00915527
-0.0265503
-0.038147
-0.0384521
-0.0192261
-0.00640869
-0.022583
-0.0363159
-0.0161743
0.00701904
0.00213623
0.00640869
-0.00579834
0.0109863
0.0125122
0.0106812
0.00946045
-0.00152588
-0.0128174
-0.0115967
-0.0186157
-0.0189209
-0.0186157
-0.0201416
-0.0201416
-0.0146484
-0.00640869
0.00183105
0.015564
0.000915527
-0.0195312
0.00244141
0.000915527
0.0088501
0.00823975
0.0228882
0.0402832
0.0149536
-0.0140381
-0.0308228
-0.0219727
-0.0146484
0.0183105
0.0164795
0.0241089
0.0149536
0.00762939
0.00915527
0.00396729
-0.00946045
-0.0161743
0.00946045
0.0134277
0.00488281
-0.00366211
-0.00427246
-0.0100708
-0.0280762
-0.0253296
-0.0234985
-0.0183105
0.00213623
0.0106812
0
-0.0106812
-0.0210571
0.027771
0.0515747
0.0369263
0.0134277
0.0183105
0.00762939
0.0137329
-0.0268555
-0.0732422
-0.0701904
-0.0311279
0.015564
0.0210571
0.00610352
0
0.00701904
0.0100708
-0.000915527
-0.00915527
-0.0238037
-0.00946045
-0.00518799
-0.0177002
-0.0265503
-0.0115967
0.0128174
0.00305176
-0.00396729
-0.00793457
0.00640869
0.0341797
0.0549316
0.0601196
0.0515747
0.0323486
0.0177002
0.0170898
0.0143433
0.0158691
0.00579834
0.012207
0.0115967
0.00183105
-0.00427246
-0.0234985
-0.0201416
-0.0216675
-0.0106812
0
-0.00305176
0.00793457
0.00396729
0.0164795
0.0283813
0.0305176
0.00183105
-0.0109863
-0.0201416
-0.0357056
-0.0137329
0.00488281
0.020752
-0.00579834
-0.0100708
0
0.00762939
0.00610352
0.0222778
0.0579834
0.0512695
0.0430298
0.0415039
0.0204468
-0.00701904
-0.0265503
-0.0256348
-0.00549316
0.00518799
0.00549316
0.0189209
-0.0112915
-0.0219727
-0.0100708
-0.0125122
-0.00640869
0.00549316
0.0241089
0.0256348
0.00366211
-0.00976562
-0.0152588
-0.0146484
-0.00671387
0.00213623
0.017395
0.00549316
0.057373
0.0204468
0.0210571
0.00274658
0.0012207
-0.0189209
-0.0222778
0.00854492
0.0518799
0.0454712
0.027771
0.0234985
0.0158691
-0.00335693
-0.00305176
0.00305176
0.0192261
0.0192261
0.00793457
0
0.0177002
0.0146484
0.00244141
-0.0012207
-0.00762939
0.00335693
-0.0131226
-0.00732422
-0.00518799
-0.0216675
-0.0448608
-0.0442505
-0.038147
0.00518799
0.043335
0.00671387
0.0192261
0.0296021
0.0247192
0.0012207
-0.0213623
-0.0244141
-0.00427246
0.0204468
0.0167847
0.00610352
-0.00732422
0.0357056
0.0283813
0.00793457
0.00610352
0.0204468
0.0265503
0.010376
-0.0210571
-0.0378418
-0.00915527
-0.00518799
-0.0201416
-0.00488281
0.00946045
0.0189209
0.0268555
0.0247192
0
-0.022583
-0.0283813
-0.0408936
-0.0369263
-0.0411987
-0.03479
-0.0198364
-0.00396729
0.00518799
0.0112915
-0.00762939
-0.0125122
-0.00854492
-0.00640869
-0.012207
-0.00854492
-0.0131226
-0.0119019
0.00335693
0.0100708
-0.00274658
-0.00396729
0.00213623
-0.00762939
-0.00610352
-0.0106812
-0.00976562
-0.0283813
-0.0427246
-0.0482178
-0.0366211
-0.020752
-0.0219727
-0.0222778
-0.0204468
-0.00854492
-0.0158691
-0.00610352
-0.00579834
-0.0161743
-0.015564
-0.0210571
-0.0088501
0
0.00946045
0.00823975
-0.0131226
-0.0213623
-0.0305176
-0.0369263
-0.0332642
-0.00427246
0.0146484
-0.0128174
-0.0183105
-0.0222778
-0.00854492
-0.0198364
-0.0332642
-0.0335693
-0.0189209
-0.0189209
-0.0177002
-0.00610352
-0.00640869
-0.0112915
-0.017395
-0.0247192
-0.0250244
-0.0326538
-0.0341797
-0.0286865
-0.0369263
-0.0421143
-0.0244141
-0.00579834
-0.0140381
-0.0274658
-0.0271606
-0.0128174
-0.015564
-0.015564
-0.0149536
-0.00793457
-0.020752
-0.0143433
0.00946045
0.000915527
-0.0375366
-0.0305176
-0.0439453
-0.0466919
-0.0357056
-0.0137329
-0.020752
-0.0192261
-0.0210571
-0.0109863
-0.0180054
-0.0302124
-0.0219727
-0.00518799
0.000915527
-0.0189209
-0.0286865
-0.0250244
-0.0500488
-0.0552368
-0.0262451
-0.00396729
-0.00854492
-0.0131226
0
-0.00762939
0.00213623
0.00946045
0.00244141
-0.00488281
-0.00671387
-0.00305176
-0.00366211
0
0.00183105
-0.00518799
-0.00915527
-0.00488281
0.015564
0.0125122
-0.00274658
-0.00823975
-0.00701904
0.00213623
-0.00396729
0.000305176
-0.0253296
-0.0296021
-0.0238037
0.00671387
0.0289917
0.0320435
0
-0.017395
-0.0238037
-0.00640869
0.00610352
0.000915527
0.00183105
0.00396729
0.0109863
0.00610352
-0.0109863
-0.0180054
0.00946045
0.0302124
0.0314331
0.00915527
0.0234985
0.0317383
0.0137329
-0.022583
-0.0366211
-0.0286865
-0.0360107
-0.0427246
-0.0314331
-0.0125122
0.00305176
0.0247192
0.0228882
0.0131226
0.0106812
-0.00213623
-0.00488281
0
0.00946045
0.0396729
0.0280762
0.0012207
-0.00732422
0.00366211
0
0.00366211
0.0183105
0.0283813
0.0274658
0.0387573
0.0387573
0.0485229
0.0387573
0.0341797
0.0256348
0.0109863
0.00335693
0.0161743
0.0167847
0.0228882
0.00671387
0.00671387
0.0143433
0
0.00518799
0.00457764
0.0192261
0.0198364
0.0228882
0.0213623
0.0128174
0.0216675
0.0473022
0.039978
0.0378418
0.0302124
0.032959
0.0131226
0
0.00915527
0.0149536
0.0167847
0.0646973
0.0466919
0.0259399
0.0167847
0.0195312
0.0204468
0.0302124
0.0296021
0.0320435
0.0158691
0.00793457
0.0219727
0.0152588
0.00610352
0.00335693
0.0119019
0.00823975
-0.0100708
-0.0143433
-0.0216675
0
0.0183105
0.0265503
0.0369263
0.0393677
0.0311279
0.0308228
0.0250244
0.0234985
0.0360107
0.0442505
0.0350952
0.0106812
-0.012207
-0.0137329
-0.0198364
-0.0152588
0.00549316
0.0106812
0.020752
0.0262451
0.0222778
0.0088501
0.00732422
0.0183105
0.0256348
0.0372314
0.0418091
0.0320435
0.0228882
0.0344849
0.0494385
0.0646973
0.0616455
0.0726318
0.0772095
0.0521851
0.0338745
0.0280762
0.0167847
0.0274658
0.0296021
0.0256348
0.00946045
0.00823975
0.00457764
0.00305176
-0.00640869
0.00762939
0.00823975
0.0115967
0.00671387
-0.00518799
-0.0250244
-0.0143433
-0.00579834
0.015564
0.0286865
0.0134277
-0.0125122
-0.0177002
0.00274658
0.039978
0.0460815
0.0442505
0.0360107
0.0262451
0.0219727
0.0115967
-0.00488281
-0.0012207
-0.0125122
0.00823975
0.00915527
0.0357056
0.0317383
0.0119019
0.010376
0.0219727
0.0186157
0.0231934
0.0332642
0.0445557
0.0418091
0.045166
0.0299072
0.0195312
0.000915527
-0.0131226
0.00305176
0.0344849
0.0506592
0.0643921
0.0622559
0.0292969
0.0186157
0.00488281
0.0125122
0.012207
0.0289917
0.0326538
0.0216675
0.00793457
0.00305176
0.015564
-0.00274658
0.00946045
0.0241089
0.0198364
0.00701904
-0.00610352
0.0192261
0.0140381
0.0158691
0.0167847
0.00701904
0.0149536
0.00823975
0.00732422
0.0192261
0.0231934
0.0274658
0.0180054
0.0180054
0.0109863
0.00793457
0.022583
0.0491333
0.0387573
0.0238037
0.0106812
0.0192261
0.00427246
0.012207
0.0180054
0.0161743
0.0189209
0.0125122
0.0119019
0.00213623
0.0177002
0.00579834
0.00732422
0.00823975
0.0183105
0.00457764
0.0149536
0.0357056
0.0180054
0.0088501
0.00946045
-0.00793457
-0.00305176
0
-0.000915527
0.00274658
0.0241089
0.0411987
0.0183105
0.0256348
0.0314331
0.0289917
0.0149536
0.00274658
0.0180054
0.00274658
0.012207
0.0161743
0.0219727
0.020752
0.0177002
0.0228882
0.00518799
-0.00183105
0.012207
0.0241089
0.00946045
0.0143433
0.00671387
0.00427246
-0.0180054
-0.017395
0.00335693
0.017395
0.0189209
0.00671387
0.0183105
0.0341797
0.0344849
0.0238037
0.00793457
0.000610352
-0.0112915
-0.00244141
-0.00823975
-0.00946045
-0.0158691
-0.0140381
-0.00793457
-0.020752
-0.0350952
-0.0283813
-0.0259399
-0.0448608
-0.045166
-0.0393677
-0.0317383
-0.0326538
0.0201416
0.0180054
-0.0119019
-0.015564
-0.00732422
-0.0106812
-0.0268555
-0.0308228
-0.0204468
-0.00701904
-0.00488281
-0.0106812
-0.0222778
-0.0250244
-0.0100708
0.00762939
0.000915527
-0.00213623
0
0.00244141
-0.00946045
-0.0106812
-0.0204468
-0.0424194
-0.0375366
-0.0271606
-0.0210571
-0.0311279
-0.0323486
-0.0515747
-0.0128174
-0.00946045
0.00976562
0.0177002
0.0112915
0.0149536
0.00488281
-0.00671387
0.0125122
0.0143433
-0.00518799
-0.0192261
-0.0177002
-0.0213623
-0.022583
-0.0289917
-0.0280762
0.00701904
0.012207
0.00762939
-0.00640869
-0.0274658
-0.0308228
-0.0228882
-0.0143433
-0.020752
-0.0311279
-0.03479
-0.0296021
-0.0106812
-0.00823975
-0.0250244
-0.0442505
-0.0552368
-0.0350952
-0.00671387
-0.00152588
-0.00640869
-0.00274658
0.00762939
0.00640869
0.0186157
0.0119019
0.0222778
0.0115967
-0.00762939
-0.00701904
0
-0.0180054
-0.0134277
-0.00427246
-0.00335693
-0.0320435
-0.0534058
-0.0579834
-0.00335693
0.0326538
0.0415039
0.0164795
-0.00213623
-0.0222778
-0.00854492
-0.00274658
-0.0183105
-0.0164795
-0.00793457
-0.0283813
-0.0445557
-0.0421143
-0.0213623
-0.015564
-0.0234985
-0.0292969
-0.0201416
-0.0109863
0.00396729
-0.0125122
-0.0317383
-0.0616455
-0.0613403
-0.0320435
-0.0100708
0.00946045
0.0549316
0.0753784
0.0756836
0.0634766
0.0119019
-0.0396729
-0.0579834
-0.0888062
-0.0534058
0.00366211
0.0753784
0.137329
0.13855
0.0860596
-0.00671387
-0.071106
-0.0567627
0.00823975
0.0613403
0.0509644
-0.0344849
-0.113525
-0.133362
-0.112305
-0.0704956
-0.0646973
-0.0857544
-0.090332
-0.0952148
-0.10437
-0.090332
-0.0958252
-0.102234
-0.0479126
-0.0183105
-0.00579834
-0.0543213
-0.0744629
-0.0387573
-0.015564
-0.0772095
-0.154114
-0.159912
-0.158386
-0.14679
-0.178528
-0.249634
-0.25177
-0.192566
-0.0894165
-0.0164795
0.112
0.167542
0.083313
-0.00579834
-0.057373
-0.16449
-0.28656
-0.316467
-0.232849
-0.230713
-0.237122
-0.211792
-0.113525
0.0500488
0.236206
0.26825
0.231628
0.164185
0.0979614
0.0296021
-0.00488281
-0.022583
0.017395
0.065918
0.11322
0.122681
0.078125
0.0585938
0.0198364
-0.0408936
-0.119629
-0.142517
-0.120239
-0.146179
-0.214844
-0.254822
-0.256348
-0.228577
-0.180054
-0.137329
-0.0695801
0.0500488
0.106812
0.153198
0.136414
0.0708008
0.0112915
-0.098877
-0.19043
-0.239563
-0.28595
-0.328674
-0.226746
-0.0088501
0.107117
0.164795
0.313416
0.421143
0.340576
0.19928
0.0790405
0.0473022
-0.00946045
-0.101318
-0.115662
-0.260315
-0.389099
-0.38147
-0.26001
-0.122986
0.00854492
0
0.0518799
0.17334
0.301208
0.413513
0.401306
0.298462
0.17395
0.0317383
0.0152588
0.12207
0.27771
0.35675
0.314941
0.120544
-0.135803
-0.294495
-0.352478
-0.470886
-0.466919
-0.27771
-0.0708008
0.126038
0.214539
0.188904
0.187073
0.144348
0.0646973
-0.0732422
-0.0735474
-0.0473022
-0.1651
-0.210571
-0.139465
-0.06073
-0.09552
-0.209656
-0.505371
-0.695496
-0.575867
-0.178528
0.278015
0.328064
0.19104
0.108337
-0.00488281
-0.0427246
0.118103
0.329285
0.35553
0.274963
0.32074
0.368652
0.3125
0.161133
0.289917
0.812683
1.01196
0.552979
0.0515747
-0.0454712
0.0595093
0.129089
0.232239
0.270996
0.284119
0.395203
0.586853
0.683289
0.567017
0.281372
0.0671387
-0.135193
-0.268555
-0.0198364
0.403748
0.569458
0.348511
0.201416
0.266724
0.415955
0.423584
0.340881
0.224915
0.0424194
-0.115356
-0.137024
-0.0378418
0.0177002
0.0805664
0.308838
0.403442
0.0692749
-0.40741
-0.888977
-1.13464
-1.00983
-0.533447
-0.0305176
0.221558
0.597839
0.836487
0.848083
0.662537
0.372314
0.214539
-0.093689
-0.491943
-0.765686
-0.59845
0.0393677
0.574341
0.569763
0.280762
0.0314331
-0.0271606
0.106506
0.384827
0.708313
0.856628
0.50415
-0.00579834
-0.63385
-0.838928
-0.57373
-0.296631
-0.16449
-0.0561523
-0.21759
-0.530701
-0.498657
-0.360413
-0.310364
-0.241699
-0.124512
-0.328979
-0.163879
-0.10376
0.102539
0.360718
0.151672
-0.402527
-0.68634
-0.701904
-0.77301
-0.803833
-0.722046
-0.379333
0.829163
2.14386
2.62146
2.18109
0.451355
-1.50024
-2.10968
-1.87744
-1.2915
-0.707092
-0.452576
-0.254822
0.230103
0.397339
0.423889
0.393372
-0.216064
-0.587463
-0.541687
-0.275879
0.140686
0.509949
0.660706
0.238342
-0.411682
-0.733948
-0.843201
-0.675964
-0.19989
0.253601
0.470886
0.393677
0.307312
0.072937
0.0640869
0.0595093
0.387573
0.540771
0.610657
0.285034
-0.37384
-0.421143
-0.330811
-0.149841
0.184937
0.366211
0.300903
0.0262451
-0.58075
-0.770264
-0.611572
-0.399475
-0.114136
0.142822
0.228271
0.144348
0.0894165
0.0302124
0.0305176
-0.0424194
-0.242615
-0.329285
-0.276794
-0.118713
0.192261
0.219727
0.387268
0.509644
0.467224
0.270386
-0.0759888
-0.243225
-0.067749
0.349121
0.552063
0.214539
-0.260925
-0.341492
-0.169983
0.0140381
0.174255
-0.166931
-0.431213
-0.367432
-0.224915
-0.0537109
0.162048
0.640564
0.996094
1.16425
0.899658
0.15564
-0.563965
-0.980225
-0.846252
-0.576172
-0.363464
-0.25177
-0.159302
-0.128174
-0.154114
-0.154114
-0.189209
-0.0750732
-0.169067
-0.0881958
0.0134277
-0.0421143
-0.145569
-0.278625
-0.27832
-0.0357056
0.193787
0.271301
0.223083
0.285034
0.410461
0.545959
0.523071
0.52124
0.487976
0.605164
0.766907
0.61554
0.205688
-0.071106
-0.101013
-0.226746
-0.0720215
-0.0161743
-0.292358
-0.391541
-0.382996
-0.467224
-0.422668
-0.300903
-0.166321
-0.0631714
0.328369
0.666809
0.806885
0.835876
0.525513
0.381775
0.192871
-0.405884
-0.596619
-0.462036
-0.444031
-0.365601
-0.265198
-0.181885
-0.10498
0.0802612
0.341492
0.518188
0.517883
0.354309
0.151062
0.0167847
-0.3125
-0.294189
-0.0967407
0.133667
0.126648
0.0140381
0
0.155945
0.144958
-0.0650024
-0.0183105
0.347595
0.725403
0.698242
0.220337
-0.105591
-0.0332642
0.0604248
0.137634
-0.365906
-0.708008
-0.526733
-0.387878
-0.0814819
0.292664
0.63446
0.881958
0.768738
0.481262
0.353699
0.192261
0.0802612
-0.245361
-0.735779
-0.861206
-0.812683
-0.646667
-0.432434
-0.248718
-0.0228882
0.190125
0.419617
0.459595
0.245972
0.0567627
-0.127869
-0.177002
-0.195923
-0.164185
-0.106201
-0.0402832
-0.0827026
-0.124512
-0.13092
0.0244141
0.340271
0.891113
1.3623
0.965881
0.0305176
-0.774231
-0.744019
-0.51178
-0.365295
-0.26825
-0.184326
-0.0387573
0.264587
0.456848
0.574951
0.52948
0.332947
0.368958
0.305176
0.161438
0.188599
-0.0253296
-0.342102
-0.69397
-0.677795
-0.37384
-0.160522
-0.12146
-0.0231934
0.172119
0.308533
0.422668
0.439148
0.256042
0.130005
0.253601
0.438538
0.580139
0.577393
0.265808
-0.144653
0.210876
0.672913
0.701599
0.195618
-0.510559
-0.533142
-0.304565
-0.179138
-0.241699
-0.33783
-0.432434
-0.509338
-0.576477
-0.578613
-0.442505
-0.270081
-0.0088501
0.1651
0.179138
0.0595093
-0.0115967
0.152588
0.254822
0.30365
0.250854
0.0259399
-0.0521851
0.0616455
0.0332642
-0.0985718
-0.220337
-0.401917
-0.334167
-0.263062
-0.247192
-0.171814
-0.0158691
0.17395
0.424805
0.418701
0.301208
-0.0564575
-0.335693
-0.207214
-0.185242
-0.218201
-0.146484
-0.0466919
0.00396729
0.155945
0.723877
0.974426
1.01959
0.569153
-0.58197
-0.767822
-0.551758
-0.406799
-0.342102
-0.290527
-0.195923
-0.062561
-0.0286865
-0.106201
-0.197449
-0.225525
-0.12207
0.039978
0.108643
0.219421
0.1651
0.0894165
-0.00823975
-0.0140381
0.13916
0.341492
0.3302
0.155945
-0.13916
-0.174561
-0.00549316
0.0140381
0.0350952
-0.0271606
-0.159302
-0.0915527
0.0192261
-0.0198364
-0.176086
-0.198669
-0.189819
0.113525
0.440674
0.365295
0.22583
0.0866699
-0.155334
-0.0411987
0.17395
0.218811
0.0985718
-0.0686646
-0.162354
-0.0280762
0.0588989
0.102539
0.0680542
-0.0891113
-0.191345
-0.178223
-0.0991821
0.000915527
0.140381
0.167542
0.0921631
-0.0228882
-0.0106812
0.0518799
0.0906372
0.0949097
-0.071106
-0.10376
-0.150146
-0.245056
-0.235901
-0.130005
-0.0473022
-0.0524902
-0.098877
-0.151367
-0.085144
0.065918
0.0912476
0.0698853
0.0192261
0.0814819
0.1828
0.230103
0.174255
0.0192261
-0.0973511
-0.117493
-0.110168
-0.0686646
-0.062561
-0.0646973
-0.0436401
-0.0219727
-0.0286865
-0.0918579
-0.0875854
-0.167542
-0.184937
0.0405884
0.300293
0.469666
0.281677
-0.0369263
-0.129089
-0.0762939
-0.0088501
-0.0131226
-0.106506
-0.140076
-0.0561523
0
0.00549316
-0.00183105
-0.0210571
-0.00274658
0.0778198
0.198669
0.344849
0.376587
0.242004
-0.0442505
-0.28656
-0.247192
-0.201111
-0.198364
-0.196228
-0.172119
-0.202026
-0.142212
0.0012207
0.0939941
0.112915
0.0784302
0.0537109
-0.0299072
-0.098877
-0.093689
-0.085144
-0.0753784
0.0152588
0.0778198
0.0637817
-0.0836182
-0.165405
-0.0759888
0.0686646
0.193176
0.275269
0.343628
0.349731
0.22644
0.0378418
-0.104065
-0.0714111
-0.0759888
-0.0222778
0.0125122
0.000610352
-0.0613403
-0.00946045
0.067749
0.0189209
-0.065918
-0.0714111
0.0265503
0.0588989
0.0704956
0.116272
0.179749
0.319519
0.345459
0.355835
0.168152
-0.122375
-0.213318
-0.15564
-0.0686646
-0.0424194
-0.0701904
-0.0753784
-0.0704956
-0.0256348
0
0.093689
0.171204
0.184631
0.119019
-0.0473022
-0.191956
-0.207214
-0.189209
-0.1651
-0.149536
-0.124207
-0.0650024
0.0216675
0.083313
0.130005
0.123596
0.0601196
0.103455
0.26947
0.471497
0.522156
0.27771
-0.057373
-0.160522
-0.0735474
0.0106812
0.127869
0.238342
0.203552
0.0689697
-0.165405
-0.347595
-0.294495
-0.210266
-0.144653
-0.133362
-0.0979614
-0.0387573
-0.0320435
-0.0344849
-0.0289917
0.0128174
0.112
0.219727
0.263062
0.272522
0.184326
0.0167847
-0.0488281
-0.09552
-0.0994873
-0.0985718
-0.0857544
-0.0219727
0.0241089
0.0158691
-0.0115967
-0.0396729
-0.0354004
-0.0418091
-0.0344849
-0.0567627
-0.0262451
-0.020752
-0.0177002
0.0134277
0.0415039
0.0485229
0.0946045
0.16571
0.131836
0.0628662
-0.0280762
-0.0881958
-0.0704956
0.0497437
0.162048
0.167847
0.115356
0.0265503
0.0393677
0.0698853
0.0314331
0.0228882
0
-0.00274658
0.0680542
0.160828
0.217285
0.212708
0.113525
0.189514
0.331726
0.326233
0.157471
-0.116272
-0.288391
-0.339661
-0.340576
-0.316162
-0.269165
-0.241394
-0.146484
-0.0354004
0.00396729
0
0.0738525
0.158081
0.177917
0.141296
0.0125122
-0.193176
-0.259094
-0.223389
-0.0814819
0.0668335
0.223083
0.218201
0.0888062
0
-0.0524902
-0.022583
-0.0924683
-0.198059
-0.125122
0.00518799
0.043335
0.0012207
-0.0341797
-0.0869751
-0.0820923
-0.0241089
-0.00701904
0.0485229
0.100403
0.127258
0.242615
0.345154
0.389099
0.292358
0.0326538
-0.144653
-0.193481
-0.176392
-0.126343
-0.0262451
-0.0149536
-0.0601196
-0.121155
-0.0650024
0.0265503
0.0454712
0.0256348
-0.010376
0.0292969
0.0592041
0.0799561
0.0491333
-0.0180054
-0.0927734
-0.114136
-0.0881958
0.00244141
0.235596
0.498352
0.667114
0.538025
0.117798
-0.244446
-0.345764
-0.3125
-0.248108
-0.222778
-0.219727
-0.204773
-0.158386
-0.161133
-0.112305
-0.0915527
-0.101624
-0.085144
-0.0253296
0.062561
0.229187
0.472412
0.544434
0.427551
0.111084
-0.0817871
-0.0979614
-0.0601196
-0.0543213
-0.143127
-0.214233
-0.213318
-0.195923
-0.128174
0.00823975
0.143127
0.158997
0.0964355
0.0100708
-0.101624
-0.115356
-0.0671387
-0.0656128
-0.10376
-0.0985718
-0.0695801
-0.0289917
0.0289917
0.0427246
0.0317383
0.0314331
0.00610352
-0.0421143
-0.0430298
0.0228882
0.0732422
0.0442505
0.00518799
-0.0143433
0.0119019
0.0442505
0.0756836
0.107727
0.158386
0.241089
0.309753
0.282898
0.194092
0.0750732
-0.0689697
-0.110474
0.00335693
0.166931
0.133667
-0.0311279
-0.231934
-0.418396
-0.37323
-0.238342
-0.128784
-0.123596
-0.098877
-0.0201416
0.0170898
0.0119019
0.00213623
0.0222778
-0.00579834
-0.0140381
0.134583
0.299683
0.370789
0.367432
0.144653
-0.0723267
-0.153503
-0.181885
-0.186157
-0.157166
-0.137329
-0.118103
-0.0674438
-0.0286865
-0.0411987
-0.0408936
-0.0427246
-0.0305176
-0.0271606
-0.03479
0
0.0463867
0.0540161
0.0448608
-0.0137329
-0.102844
-0.107727
-0.0521851
0.0109863
0.0143433
-0.0177002
-0.0390625
-0.0292969
-0.0125122
0.010376
0.0299072
0.0192261
0.0170898
0.0354004
0.0646973
0.108948
0.135498
0.0888062
0.00183105
-0.0650024
-0.0228882
0.0881958
0.139465
0.13031
0.0189209
-0.141296
-0.207825
-0.168762
-0.0970459
-0.0317383
-0.0106812
0.0189209
0.0320435
0.00854492
-0.00854492
-0.0244141
-0.0372314
-0.0378418
-0.0308228
-0.0201416
-0.0158691
-0.0143433
-0.0201416
-0.0341797
-0.0296021
-0.0128174
0.00946045
0.0476074
0.103455
0.0927734
0.0445557
0.0378418
0.0466919
0.045166
0.0643921
-0.00793457
-0.115356
-0.166321
-0.173035
-0.0994873
-0.0201416
0.0668335
0.149231
0.1474
0.183105
0.193787
0.157776
0.132141
0.065918
-0.038147
-0.114136
-0.162048
-0.129089
-0.0146484
0.0875854
0.150452
0.138245
0.0759888
0.0305176
0.0274658
0.050354
0.000915527
-0.0418091
-0.00366211
0.0265503
0.0335693
0.0115967
0.00274658
0.0335693
0.0875854
0.115356
0.103455
0.0720215
0.0271606
0.0106812
0.00457764
0.0366211
0.0534058
0.0326538
0.0189209
0.0222778
0.0427246
0.0674438
0.112
0.11261
0.107117
0.0946045
0.0769043
0.0448608
0.0595093
0.050354
0.0323486
0.022583
0.0192261
0.0183105
0.0335693
0.0213623
0.017395
0.0344849
0.0332642
0.0311279
0.0244141
0.0283813
0.0402832
0.0320435
0.032959
0.0387573
0.0268555
0.0201416
0.0375366
0.0485229
0.0506592
0.0445557
0.0512695
0.0515747
0.0601196
0.0646973
0.0613403
0.0473022
0.0375366
0.0357056
0.0302124
0.032959
0.0497437
0.0582886
0.0521851
0.0363159
0.0622559
0.0552368
0.0485229
0.0491333
0.0463867
0.0445557
0.0448608
0.0595093
0.0714111
0.0695801
0.0643921
0.0628662
0.0631714
0.0604248
0.0448608
0.0457764
0.0454712
0.0402832
0.0244141
0.0192261
0.0216675
0.0350952
0.0271606
0.0402832
0.0357056
0.0466919
0.0457764
0.055542
0.043335
0.0289917
0.0421143
0.0735474
0.0924683
0.0921631
0.0778198
0.0662231
0.0424194
0.0158691
0.0012207
0.0119019
0.0390625
0.0598145
0.0473022
0.0506592
0.0793457
0.0839233
0.0564575
0.0317383
0.0457764
0.0338745
0.0457764
0.0500488
0.0387573
0.0402832
0.0411987
0.0457764
0.0534058
0.0421143
0.0338745
0.0534058
0.0558472
0.0509644
0.0418091
0.039978
0.0552368
0.045166
0.0363159
0.0262451
0.0268555
0.0100708
0.00915527
0.0314331
0.0393677
0.0436401
0.0411987
0.0369263
0.0244141
0.0140381
0.0128174
0.000915527
0.00793457
-0.00793457
-0.0112915
-0.022583
-0.020752
-0.010376
-0.00976562
0.00762939
0.0216675
0.0299072
0.022583
0.0167847
0.00274658
-0.00701904
-0.0234985
-0.0244141
-0.0198364
-0.0100708
-0.0128174
-0.0262451
-0.00305176
-0.0128174
-0.00518799
-0.00518799
-0.0149536
-0.010376
-0.0146484
-0.0210571
-0.0247192
-0.0271606
-0.0158691
-0.00732422
-0.0192261
-0.0238037
-0.0253296
-0.0424194
-0.0460815
-0.0357056
-0.00915527
0.00640869
-0.0088501
-0.0283813
-0.0393677
-0.045166
-0.0354004
-0.0408936
-0.0524902
-0.0454712
-0.0662231
-0.0549316
-0.0476074
-0.0540161
-0.071106
-0.0567627
-0.0585938
-0.0686646
-0.0808716
-0.085144
-0.0744629
-0.0759888
-0.0762939
-0.0473022
-0.0354004
-0.0418091
-0.0396729
-0.0442505
-0.0320435
-0.0192261
-0.022583
-0.012207
0
0.0231934
0.0247192
0.022583
0.00274658
0
-0.00183105
-0.00152588
-0.00366211
-0.0112915
-0.0271606
-0.039978
-0.0509644
-0.0564575
-0.0726318
-0.0509644
-0.062561
-0.045166
-0.0259399
-0.0140381
-0.0256348
-0.0491333
-0.0665283
-0.0692749
-0.0445557
-0.0421143
-0.0512695
-0.0546265
-0.0427246
-0.0222778
0.0012207
0.00640869
0.0164795
0.010376
-0.00396729
0.0012207
-0.00213623
-0.00366211
-0.0137329
-0.00396729
-0.0283813
-0.0408936
-0.0564575
-0.0534058
-0.0378418
-0.0454712
-0.0335693
-0.0363159
-0.0308228
-0.0415039
-0.0393677
-0.0271606
-0.0335693
-0.0457764
-0.0509644
-0.0656128
-0.0619507
-0.0881958
-0.0991821
-0.0930786
-0.0881958
-0.0704956
-0.0784302
-0.057373
-0.0540161
-0.0683594
-0.0631714
-0.0827026
-0.109558
-0.115967
-0.110474
-0.0827026
-0.055542
-0.0723267
-0.0662231
-0.0894165
-0.0964355
-0.0872803
-0.0808716
-0.078125
-0.0720215
-0.0747681
-0.0750732
-0.0793457
-0.0778198
-0.0787354
-0.123596
-0.0909424
-0.0338745
-0.0674438
-0.0949097
-0.098877
-0.0802612
-0.0820923
-0.093689
-0.125427
-0.0985718
-0.0509644
-0.0280762
-0.0582886
-0.0854492
-0.0805664
-0.0634766
-0.0616455
-0.0717163
-0.0778198
-0.0732422
-0.0674438
-0.0790405
-0.0500488
0.00946045
0.0274658
0.00640869
-0.0140381
-0.0158691
-0.00366211
0.0280762
0.0259399
0.0149536
0.0302124
0.0268555
-0.00213623
0.0158691
0.0579834
0.0915527
0.09552
0.0894165
0.0506592
0.0323486
-0.0198364
0.00549316
0.0799561
0.0808716
0.065918
0.0320435
0.03479
0.0497437
0.0717163
0.0540161
-0.0186157
-0.0604248
-0.0723267
-0.0527954
-0.0088501
-0.00823975
-0.00640869
0.0317383
0.0793457
0.0875854
0.107727
0.0976562
0.115967
0.0790405
-0.00610352
-0.0695801
-0.0527954
0.0344849
0.0692749
0.0952148
0.137939
0.0982666
0.0726318
0.039978
0.0320435
0.020752
0.0106812
0.00610352
0.0177002
0.0338745
-0.0653076
-0.0509644
0.0430298
0.0296021
-0.0411987
-0.0427246
-0.0360107
-0.0366211
-0.0332642
0
-0.057373
-0.0942993
-0.0469971
0.093689
0.158386
0.151672
0.136414
0.13031
0.027771
-0.0143433
0.0149536
0.0424194
0.0430298
0.0198364
0.00335693
0.0784302
0.12146
0.0473022
0.0384521
0.0418091
0.0512695
0.0717163
0.0518799
0.0842285
0.13031
0.171204
0.150757
0.119629
0.0979614
0.0601196
0.0695801
0.10498
0.0790405
0.0613403
0.0521851
0.0643921
0.104675
0.102539
0.0756836
0.0637817
0.0375366
-0.0170898
-0.0576782
-0.0534058
-0.00518799
0.0592041
0.0717163
0.0302124
-0.00671387
-0.0250244
0.0125122
0.0512695
0.00549316
0.0012207
0.0180054
0.00701904
0.0378418
0.0875854
0.0695801
0.0308228
0.0234985
0.00793457
-0.0201416
-0.00213623
0.00396729
0
0.0296021
0
-0.0631714
-0.113525
-0.0869751
0
0.0177002
0.032959
0.0524902
0.00396729
-0.0704956
-0.0692749
-0.0448608
-0.027771
-0.0350952
-0.0326538
-0.0259399
-0.0296021
-0.0198364
-0.0112915
-0.0396729
-0.0479126
-0.0289917
-0.0143433
-0.0430298
-0.0567627
-0.0369263
-0.0216675
-0.0357056
-0.0622559
-0.0271606
-0.0216675
-0.0143433
0.0247192
0.0213623
-0.0137329
0.00762939
-0.00213623
-0.0268555
-0.0354004
-0.038147
-0.0497437
-0.0476074
-0.0375366
0.00549316
0.00274658
-0.0439453
-0.0613403
-0.0350952
-0.0405884
-0.0439453
-0.0588989
-0.0314331
-0.0396729
-0.0460815
-0.00732422
0.0125122
-0.0222778
-0.0497437
-0.0744629
-0.055542
-0.00701904
0.0106812
0.0152588
-0.00823975
-0.0161743
0.0106812
-0.00488281
-0.027771
-0.038147
-0.00396729
-0.00976562
-0.0186157
-0.0180054
-0.0100708
0.00946045
0.0296021
0.0109863
-0.0317383
-0.0521851
-0.0491333
-0.0296021
-0.0311279
-0.0354004
-0.0167847
-0.00244141
-0.0256348
-0.0305176
-0.0271606
-0.00823975
-0.00946045
-0.0198364
-0.00701904
0.00152588
-0.0106812
0.000305176
0.0415039
0.0256348
-0.00946045
-0.0466919
-0.0436401
-0.0418091
-0.0366211
-0.0405884
-0.012207
-0.00427246
-0.0274658
-0.0393677
-0.0247192
-0.0180054
-0.00274658
0.00274658
-0.00274658
0.00732422
-0.00488281
0.0238037
0.0378418
0.0012207
-0.027771
0.00946045
0.0311279
-0.0164795
-0.0299072
0.00854492
0.0164795
-0.0247192
-0.0387573
-0.0198364
-0.0305176
-0.0701904
-0.078125
-0.0341797
0.0204468
0.00396729
0.0384521
0.0396729
0.0180054
0.00701904
0.00244141
0.0192261
0.0656128
0.0628662
0.0463867
0.0305176
-0.00488281
0.0143433
0.017395
0.00335693
-0.00579834
-0.0100708
0.00976562
0.0378418
0.0250244
0.0192261
0.0167847
0
-0.010376
0.0109863
0.0369263
0.0448608
0.0448608
0.0439453
0.0262451
0.06073
0.0744629
0.0442505
0.0100708
0.03479
0.0765991
0.101013
0.0897217
0.0262451
-0.0128174
-0.00366211
-0.0186157
0
0.0460815
0.039978
0.0289917
0.0384521
0.0674438
0.0497437
0.032959
0.0256348
0.0170898
0.00915527
0.0137329
0.0341797
0.0354004
0.0320435
0.0247192
0.0485229
0.0863647
0.0787354
0.0802612
0.0741577
0.0796509
0.0598145
0.0286865
0.0372314
0.0375366
0.0469971
0.0491333
0.027771
0.00793457
-0.00976562
0.00213623
0.0158691
0.0540161
0.0692749
0.0424194
0.0280762
0.020752
0.0131226
0.0244141
0.0439453
0.0408936
0.0390625
0.00213623
-0.00762939
0.0140381
0.0320435
0.032959
0.020752
0.0317383
0.0457764
0.0515747
0.0445557
0.0564575
0.0473022
0.0320435
0.0183105
0.0128174
0.0335693
0.0268555
0.03479
0.0512695
0.0311279
0.0234985
0.0286865
0.0411987
0.0543213
0.0460815
0.0274658
0.017395
0
-0.0106812
0.0106812
0.0320435
0.0582886
0.0704956
0.0674438
0.0262451
-0.0244141
-0.0338745
-0.0112915
0.0192261
0.027771
0.00213623
-0.00640869
0.0164795
0.0234985
0.0332642
0.0384521
0.0305176
0.0473022
0.0537109
0.0473022
0.0271606
0.0164795
0.0271606
0.0442505
0.0320435
-0.00518799
-0.0192261
-0.0241089
-0.00823975
0.00762939
0.0204468
0.0375366
0.0466919
0.0112915
-0.00152588
0.0323486
0.0271606
0.00946045
0.00579834
0.00305176
-0.00427246
0.0115967
0.0131226
0.00823975
0
-0.00152588
-0.0146484
-0.00457764
0
0.00762939
0.00610352
-0.0109863
-0.00762939
-0.00488281
0.0158691
0.0100708
0.0140381
0.0134277
-0.00488281
0.00335693
0.0247192
0.0418091
0.0115967
0.0106812
0.0280762
0.0161743
0.00488281
0.0183105
-0.00457764
-0.0186157
0.00488281
-0.00213623
-0.0219727
-0.0204468
0.0112915
0.0140381
0.00335693
-0.0100708
-0.0149536
0.00305176
-0.0323486
-0.0357056
0.0012207
-0.00213623
-0.00671387
0.00396729
0.0112915
-0.0119019
-0.0411987
-0.06073
-0.0442505
-0.0302124
-0.0238037
-0.00213623
-0.0100708
-0.0192261
-0.0100708
-0.0112915
-0.012207
-0.015564
-0.0100708
0.0109863
-0.0100708
-0.00579834
0.00488281
0
-0.0100708
-0.0228882
-0.00823975
0.00335693
-0.00488281
0.00640869
0.0238037
0.0317383
0.0216675
0.0088501
-0.0125122
-0.0158691
-0.0222778
-0.0268555
-0.0366211
-0.0234985
-0.0195312
0
-0.0115967
-0.00732422
-0.0143433
-0.0180054
-0.017395
-0.00213623
-0.0338745
-0.0357056
-0.0128174
-0.00183105
0.0204468
0.0375366
0.0372314
0.0369263
0.00366211
-0.0161743
-0.0222778
-0.0198364
0.0119019
0.0131226
0.00579834
0.00762939
0.0292969
-0.00854492
0.00244141
0.0149536
0.015564
-0.0012207
0.00335693
0.00152588
-0.015564
-0.0146484
-0.00579834
-0.0238037
-0.0167847
-0.0234985
-0.00762939
-0.017395
-0.0100708
0.00640869
-0.00213623
-0.0177002
-0.0143433
0.00366211
-0.00549316
-0.0204468
-0.0112915
0.0088501
0.00701904
0.000610352
-0.00457764
-0.0210571
-0.027771
-0.0177002
-0.0100708
-0.00488281
-0.0146484
-0.0152588
-0.010376
0.00366211
0.0112915
0.00549316
0.0216675
-0.00488281
-0.0338745
-0.0469971
-0.0314331
0.00488281
0.00366211
0.00518799
0.00579834
0.00579834
0.00274658
0.00335693
-0.0299072
-0.0592041
-0.0509644
-0.0769043
-0.0723267
-0.0186157
0.0198364
0.0216675
0.0372314
0.0320435
0.0201416
0.00274658
0.00213623
-0.00457764
-0.00366211
0.00274658
-0.015564
-0.0292969
-0.0222778
-0.0161743
-0.010376
-0.0402832
-0.0354004
-0.0109863
-0.0177002
-0.0146484
-0.0238037
-0.0521851
-0.055542
-0.0494385
-0.0335693
-0.0158691
-0.0180054
-0.0134277
0.00946045
0.00732422
0.0183105
0.055542
0.0552368
0.015564
-0.0109863
-0.0250244
-0.0146484
-0.015564
-0.0387573
-0.0750732
-0.0973511
-0.0942993
-0.0585938
-0.0210571
0.0119019
-0.00762939
-0.0286865
-0.039978
-0.0375366
-0.0250244
-0.00854492
-0.00305176
-0.00274658
0.00701904
-0.0198364
-0.0283813
-0.015564
-0.00946045
-0.0164795
-0.0119019
-0.00518799
-0.0106812
-0.020752
-0.0125122
0.022583
0.0421143
0.0357056
0.0280762
0.00915527
-0.010376
-0.0119019
0.0131226
0.0289917
0.0189209
0.0164795
0.00701904
0.00274658
0.00213623
-0.0244141
-0.0424194
-0.0369263
0.00518799
-0.0112915
-0.00640869
-0.0201416
0.00457764
0.0289917
0.017395
-0.0369263
-0.0540161
-0.0506592
-0.0244141
0.000915527
-0.0189209
-0.0256348
-0.00946045
-0.00732422
-0.00793457
0
0.0012207
0.0180054
0.0167847
0.0204468
-0.00274658
-0.0271606
-0.0323486
-0.038147
-0.0213623
-0.0326538
-0.0515747
-0.0268555
-0.0302124
-0.0250244
-0.0384521
-0.0485229
-0.0268555
-0.0012207
-0.010376
0.00671387
0.00457764
0.00305176
-0.00762939
-0.00518799
-0.0012207
-0.0219727
-0.0131226
0.00183105
0.0231934
0.0167847
0.00640869
0.00152588
-0.00823975
-0.0222778
-0.0469971
-0.0524902
-0.0341797
-0.0271606
0
0.0289917
0.0354004
0.00183105
-0.0204468
0
0.0268555
0.0106812
0.00915527
0.00854492
0.0164795
0.0192261
0.0109863
-0.00549316
-0.0292969
-0.0289917
0.00732422
0.0170898
0.0088501
-0.00305176
0
-0.00244141
0
0.00274658
0.00183105
0.0378418
0.0292969
0.0256348
0.0302124
0.0204468
-0.00305176
-0.0186157
-0.0219727
-0.0204468
-0.0143433
0.000305176
0.0158691
0.015564
0.0109863
0.00152588
-0.00213623
0.0134277
0.0192261
0.0253296
0.00518799
0.000305176
0.00305176
0.0262451
0.0134277
0.00640869
0.00366211
0.03479
0.0314331
0.0161743
0.00793457
0.0140381
0.017395
0.0354004
0.0354004
0.0262451
0.0137329
-0.00701904
0.010376
0.0378418
0.0216675
-0.00457764
-0.0128174
0.0204468
0.0430298
0.0265503
0.0320435
0.0265503
-0.00854492
-0.0143433
-0.0140381
0.00396729
0.00518799
0.00701904
0.0088501
0.00244141
0.00732422
0.0170898
0.0231934
0.00244141
0.00701904
0.00549316
-0.00244141
-0.00640869
0.0134277
0.0186157
0.0213623
0.0189209
0.0262451
-0.0088501
-0.0198364
0.000915527
0.00823975
-0.0115967
-0.0119019
0.00518799
-0.0238037
-0.00701904
0.00152588
-0.00610352
-0.00152588
0.00640869
0.00854492
0.0238037
0.0320435
0.0219727
0.0119019
0.0167847
0.015564
0.0213623
0.0161743
0.00244141
-0.00274658
0.0473022
0.0479126
0.045166
0.0375366
0.0265503
0.0256348
0.0180054
0.00946045
0
-0.00244141
-0.00183105
-0.00518799
0
0.0158691
0.00335693
-0.00579834
0.0201416
0.0299072
0.0366211
0.027771
0.0265503
0.0305176
0.0305176
0.0234985
0.00305176
0.0210571
0.0671387
0.0802612
0.0537109
0.0210571
0.0283813
0.0177002
0.0128174
0.0445557
0.0546265
0.0634766
0.0637817
0.0558472
0.0439453
0.0415039
0.0253296
0.0222778
0.0369263
0.0231934
0.0268555
0.0305176
0.0436401
0.0430298
0.0390625
0.0427246
0.0439453
0.0448608
0.0372314
0.0186157
0.0192261
0.0192261
0.0119019
0.0195312
0.0119019
0.0134277
0.020752
0.0152588
0.0256348
0.0256348
0.00762939
-0.00915527
-0.0109863
-0.0231934
-0.00823975
-0.00793457
-0.0131226
-0.0140381
0.00946045
0.0491333
0.0888062
0.0595093
0.0442505
0.085144
0.119324
0.1474
0.132141
-0.0140381
-0.209351
-0.241394
-0.150452
-0.027771
0.0460815
0.0424194
0.0790405
0.203857
0.282288
0.237122
0.184631
0.122986
0.0500488
0.0314331
-0.0268555
-0.156555
-0.298767
-0.371399
-0.419006
-0.447388
-0.411377
-0.2771
-0.0570679
0.186462
0.333862
0.296326
0.133667
-0.00457764
-0.0643921
-0.0128174
-0.0778198
-0.140991
-0.0997925
-0.0942993
-0.21698
-0.353088
-0.428772
-0.438538
-0.411377
-0.397034
-0.342712
-0.205383
0.0158691
0.158997
0.112
-0.0402832
-0.174866
-0.16449
0.00366211
0.14679
0.248108
0.150757
-0.143127
-0.536804
-0.658264
-0.475159
0.0183105
0.510559
0.605164
0.428162
0.220642
0.0537109
-0.0372314
-0.0915527
-0.0622559
0.0357056
0.234375
0.550537
0.691833
0.664062
0.47821
0.24292
0.0372314
-0.135803
-0.308533
-0.167847
0.253296
0.753479
1.10382
1.05957
0.845032
0.582275
0.32135
0.090332
-0.1651
-0.376282
-0.55481
-0.586548
-0.265503
-0.0540161
-0.00518799
0.175171
0.462952
0.619202
0.406189
0.189514
0.301208
0.52002
0.406799
0.292664
0.310974
0.487366
0.377502
0.169678
0.153198
0.215149
0.148315
0.0341797
-0.0262451
-0.00640869
0.292664
0.570374
0.561218
0.343628
0.0253296
-0.100098
-0.0820923
-0.0564575
-0.439148
-0.782471
-0.765686
-0.55542
-0.340881
-0.128174
0.0186157
0.116577
0.117798
-0.0842285
-0.427551
-0.631104
-0.748596
-0.798645
-0.635071
-0.314331
0.0384521
0.372314
0.531921
0.578308
0.323181
-0.116272
-0.0262451
0.212402
0.365601
0.424805
0.276184
0.106506
0.183105
0.249023
0.130005
-0.0570679
-0.0918579
-0.142822
-0.0656128
-0.0485229
-0.151978
-0.139465
0.168152
0.501709
0.598145
0.58197
0.512695
0.277405
0.332642
0.208435
-0.55481
-1.21613
-1.42914
-1.2915
-0.854187
-0.498352
-0.359497
-0.127258
0.386047
0.695801
0.734558
0.23407
-0.691223
-1.02936
-0.692139
-0.708923
-0.878601
-0.606384
0.0906372
0.500488
0.316467
-0.158997
-0.819397
-0.837708
-0.26947
-0.0473022
-0.228882
-0.315247
0.195007
0.498962
0.418396
0.147095
-0.395508
-0.583496
-0.484924
-0.553284
-0.474548
-0.267029
-0.0753784
-0.0320435
-0.151062
-0.404663
-0.727539
-0.744934
-0.639648
-0.158386
0.439453
1.10504
1.02173
0.424805
-0.015564
-0.826111
-1.18805
-0.936584
-0.498047
-0.219116
-0.0549316
0.169983
0.369568
0.927124
1.47339
1.72668
1.47858
-0.332336
-1.49139
-1.31683
-0.918579
-0.665588
-0.604553
-0.662231
-0.483398
-0.232239
-0.265808
-0.178223
-0.0753784
0.298157
0.499268
-0.0497437
-0.699158
-0.778198
-0.386353
-0.198975
-0.133057
-0.0198364
0.0830078
0.0598145
0.107117
0.181885
0.279541
0.374756
0.407104
0.347595
0.390015
0.761108
1.12885
1.20667
0.967712
0.858459
0.887451
0.264587
-0.204773
-0.458984
-0.363464
0.253601
0.606689
0.422974
-0.381775
-0.608215
-0.408325
-0.344543
-0.0161743
0.296936
0.662842
0.614014
0.188904
0.192261
0.148926
0.21698
0.195312
-0.170288
-0.498352
-0.497437
-0.357361
-0.214539
0.190125
0.677795
0.901184
0.585022
-0.195923
-0.488892
-0.357971
-0.083313
0.14679
0.465698
0.715027
1.08673
1.33759
0.889282
0.196533
-0.639648
-0.775146
-0.59967
-0.592346
-0.652466
-0.335388
0.134277
0.412292
0.255432
-0.210571
-0.213013
0.309448
0.63446
0.656738
0.0747681
-0.384521
-0.269165
-0.0415039
0.129089
0.691833
1.49506
2.02454
1.68457
0.107117
-0.811462
-1.10504
-0.725098
-0.226746
0.0750732
0.083313
-0.421448
-0.593262
-0.209045
0.231323
0.534973
0.175171
-0.222778
-0.168457
-0.153809
-0.109558
-0.0839233
-0.083313
-0.0869751
-0.0616455
-0.0445557
0.107727
0.391846
0.555725
0.475769
0.115967
0.00152588
-0.0109863
-0.103149
-0.161438
-0.0888062
-0.00152588
0.108337
0.160828
0.368347
0.310364
0.28595
-0.0350952
-0.321045
0.131226
0.526123
0.555115
0.0292969
-0.0213623
-0.119324
-0.403137
-0.447388
-0.270081
-0.119629
-0.318909
-0.366211
-0.249939
-0.238342
-0.256958
-0.228577
0.0708008
0.327454
0.423584
0.446167
0.278625
0.178528
0.231628
0.628357
0.948792
0.625305
-0.1297
-0.664368
-0.579224
-0.0610352
0.140991
0.159607
-0.10437
-0.532532
-0.321045
-0.296936
-0.326538
-0.545349
-0.630493
-0.400085
-0.222473
-0.0665283
0.133972
0.180664
-0.000610352
-0.0375366
0.146179
0.126648
0.0265503
-0.117493
-0.247498
-0.0378418
0.475769
1.16913
1.4444
0.762329
0.0680542
-0.402527
-0.740967
-0.699463
-0.617676
-0.549927
-0.565186
-0.435181
-0.252686
-0.115662
-0.0112915
0.00823975
0.0213623
0.117798
0.0927734
0.0497437
-0.0665283
-0.055542
-0.0250244
-0.0628662
-0.0976562
-0.0802612
-0.0088501
0.0476074
0.0915527
0.129089
0.0628662
0.0430298
0.0387573
-0.09552
-0.203857
-0.171204
-0.108948
-0.244446
-0.376587
-0.415649
-0.0628662
0.670471
0.884705
0.800476
0.201416
-0.196228
-0.0994873
-0.102844
-0.083313
-0.152283
-0.348206
-0.475159
-0.119629
0.509033
0.862427
0.72052
0.0857544
-0.614929
-0.532532
0.0363159
0.26062
0.0601196
-0.27832
-0.414429
-0.346069
-0.292358
-0.245056
-0.170288
-0.151672
-0.156555
-0.146484
-0.176392
-0.104065
0.0540161
0.17395
0.0979614
-0.0830078
0.0973511
0.566711
0.800171
0.539551
-0.106201
-0.411987
-0.274963
-0.022583
0.0708008
0.0012207
-0.072937
-0.142517
-0.208435
-0.26886
-0.256958
-0.204163
-0.151062
-0.108337
-0.090332
-0.0805664
-0.0408936
-0.00946045
-0.0314331
-0.0759888
-0.0421143
-0.0180054
0.0167847
0.0115967
0.0238037
0.0149536
0.0726318
0.101013
0.141907
0.144043
0.0350952
-0.113831
-0.00976562
-0.00732422
-0.0338745
-0.131531
-0.1474
0.0491333
0.171814
0.0830078
-0.00671387
0.0497437
0.335388
0.571899
0.426941
-0.0161743
-0.341797
-0.262756
-0.154724
-0.0280762
0.062561
-0.0982666
-0.256653
-0.288696
-0.188293
-0.0863647
-0.0305176
-0.0189209
0
0
-0.0354004
-0.0460815
-0.0405884
-0.0296021
-0.00335693
0.00671387
0.0393677
0.0271606
-0.00274658
0.00335693
0.0216675
0.032959
0.0180054
0.000305176
0.022583
0.0372314
0.0656128
0.0387573
-0.0354004
-0.0827026
0.0180054
0.11322
0.175171
0.0814819
-0.0152588
-0.0247192
0.00701904
0.0167847
0.0708008
0.0143433
-0.0650024
-0.0421143
0
0.0650024
0.307007
0.700073
0.835571
0.593567
-0.0338745
-0.515442
-0.628052
-0.512085
-0.447083
-0.336914
-0.219727
-0.170593
-0.210571
-0.288391
-0.234375
-0.166321
-0.0531006
0.0253296
0.0460815
0.0881958
0.0949097
0.0762939
0.0317383
0.00244141
-0.00457764
-0.0314331
-0.0088501
0.0170898
0.0109863
0.0198364
0.0140381
0.0204468
0.0283813
0.0350952
0.0424194
0.0527954
0.0570679
0.0411987
0
-0.015564
-0.00305176
-0.00335693
0.00274658
0.06073
0.109558
0.239563
0.325928
0.335083
0.181274
0.0247192
0.0631714
0.204163
0.299683
0.197754
0.0802612
-0.0170898
-0.0363159
-0.140076
-0.294495
-0.342712
-0.229187
-0.127869
0.0357056
0.207825
0.0814819
-0.14679
-0.193787
-0.153809
-0.140381
-0.100708
-0.0827026
-0.0302124
-0.0595093
-0.0735474
-0.0192261
0.0247192
0.0753784
0.122375
0.119629
0.0256348
0.00610352
0.0869751
0.280762
0.499573
0.527039
0.413513
0.0839233
-0.397339
-0.694275
-0.541992
-0.297546
-0.115051
0.017395
0.0683594
0.0357056
0.0436401
0.0521851
0.0674438
0.0363159
-0.0930786
-0.0958252
-0.0222778
0.0360107
0.00640869
-0.0500488
-0.100708
-0.107117
-0.0650024
0.0662231
0.172729
0.213318
0.198975
-0.00183105
-0.1651
-0.126953
-0.065918
0.0521851
0.112305
0.0271606
-0.0369263
-0.0161743
0.107117
0.218506
0.204468
0.0860596
-0.109558
-0.0534058
0.143127
0.21698
0.253601
0.180054
0.135193
0.0253296
-0.24353
-0.3302
-0.310059
-0.142822
0.0271606
0.105591
0.101013
-0.0143433
-0.123291
-0.098877
-0.0881958
-0.0839233
-0.0686646
-0.0363159
0.11261
0.293579
0.302429
0.210266
-0.0299072
-0.0787354
-0.0396729
-0.00823975
0.0244141
0.0402832
0.065918
0.134888
0.125427
0.0128174
0.0131226
0.171814
0.333862
0.409546
0.297546
-0.0344849
-0.21698
-0.190735
-0.181885
-0.22522
-0.267639
-0.273743
-0.21637
-0.141602
-0.0723267
0.0363159
0.106812
0.153809
0.0653076
-0.117188
0.015564
0.298157
0.378418
0.222473
-0.00305176
-0.121765
-0.123901
-0.0939941
-0.109863
-0.144043
-0.134888
-0.057373
0.0643921
0.0769043
0.0875854
0.125122
0.0231934
-0.0180054
0.00366211
-0.0158691
-0.0558472
-0.0686646
0.0509644
0.210266
0.265198
0.172729
0.0567627
0.0115967
-0.0360107
-0.0588989
-0.0604248
-0.0546265
0.0210571
0.090332
0.176697
0.255737
0.216064
0.083313
-0.17334
-0.264893
-0.257263
-0.240784
-0.106506
-0.100098
-0.149536
0.00274658
0.147705
0.0817871
-0.110168
-0.213318
-0.175171
-0.0820923
0.109558
0.284424
0.314636
0.270386
0.216675
0.115356
0.0527954
-0.0463867
-0.0653076
-0.0265503
-0.0296021
-0.0753784
-0.122986
-0.145264
-0.198975
-0.221252
-0.102539
0.102844
0.218201
0.266113
0.224609
0.167542
0.195007
0.118103
0.0662231
0.0350952
0.0012207
0.0228882
0.110779
0.0900269
0.0286865
0.0741577
0.120239
0.20874
0.193481
0.0592041
-0.0100708
-0.107727
-0.109253
-0.0564575
-0.0231934
-0.0149536
0.0250244
0.0320435
0.0222778
0.055542
0.129395
0.21698
0.184937
-0.0564575
-0.158691
-0.0698853
0.0653076
0.210266
0.241394
0.0341797
-0.102539
-0.188293
-0.249023
-0.183716
-0.101929
-0.0674438
-0.0460815
0.0387573
0.139771
0.216064
0.160217
0.0653076
-0.0439453
-0.113525
-0.145569
-0.133057
-0.158386
-0.153198
-0.134583
-0.102844
-0.131226
-0.131531
-0.128174
-0.119629
-0.137634
-0.145569
-0.117188
-0.0302124
-0.0491333
-0.0772095
-0.0125122
0.0445557
0.0366211
0.0436401
0.0299072
0.0415039
0.0823975
0.100403
0.126648
0.187073
0.176697
0.184326
0.144653
0.0549316
-0.0375366
-0.126648
-0.186462
-0.240479
-0.240479
-0.162354
-0.0991821
0.0335693
0.184631
0.212097
0.171509
0.116577
-0.0231934
-0.164795
-0.11322
-0.00274658
0.0601196
0.0552368
-0.0830078
-0.185852
-0.146179
-0.0561523
0.0375366
0.098877
0.179749
0.227051
0.101318
0
-0.142822
-0.122986
-0.0460815
0.00610352
0.0265503
-0.00152588
-0.0595093
-0.134888
-0.181885
-0.167236
-0.161438
-0.0769043
0.0308228
0.0946045
0.127258
0.0918579
-0.0112915
-0.117188
-0.0979614
-0.0314331
0.015564
0.0457764
-0.0411987
-0.0897217
-0.0592041
-0.0253296
-0.00518799
-0.0338745
-0.0631714
0.0088501
0.108643
0.15686
0.116272
0.093689
0.0973511
0.078125
0.0671387
0.0970459
0.143738
0.192261
0.197449
0.12207
0.0259399
-0.0894165
-0.126038
-0.0732422
-0.0430298
0.0115967
0.0582886
0.0790405
0.102234
0.0793457
0.0466919
0.0427246
-0.0390625
-0.0808716
-0.102844
-0.149536
-0.218506
-0.155029
0.0152588
0.151672
0.209045
0.10437
-0.0137329
0.0149536
0.0720215
0.105286
0.112305
0.0863647
-0.0167847
-0.108948
-0.072937
0.0192261
0.0473022
0.0222778
-0.0112915
0.00305176
0.0256348
0.0317383
0.0198364
0.0192261
0.0308228
0.0167847
-0.00183105
0.0125122
0.0384521
0.039978
0.0558472
0.0534058
0.0491333
0.0265503
0.0146484
0.00518799
0.00335693
0.0256348
0.0231934
0.0283813
0.0268555
0.00915527
0.038147
0.0723267
0.0970459
0.0949097
0.0726318
0.0521851
0.0442505
0.0402832
0.0259399
0.0180054
0.00854492
0.00915527
0.00549316
0.0411987
0.0830078
0.0817871
0.0778198
0.0341797
0.0106812
0.0326538
0.0140381
0.0177002
0.0268555
0.0454712
0.0717163
0.0726318
0.045166
0.0320435
0.0326538
0.0543213
0.071106
0.119019
0.146179
0.125427
0.0891113
0.0286865
0.0241089
0.0305176
0.0143433
0.0543213
0.0790405
0.0552368
0.0170898
0.039978
0.0643921
0.0839233
0.0521851
0.00305176
-0.0195312
-0.0418091
-0.00457764
0.107727
0.162354
0.137329
0.106506
0.103455
0.109558
0.0958252
0.0753784
0.0869751
0.151062
0.119629
0.043335
0.00366211
-0.0231934
0.00427246
-0.00701904
-0.0247192
-0.0289917
-0.0222778
-0.0100708
-0.017395
-0.0527954
-0.0726318
-0.0479126
-0.00732422
0.015564
0.0308228
0.0109863
-0.00823975
0.00457764
-0.0119019
-0.0109863
-0.00274658
0.00610352
0.00335693
-0.00427246
-0.0161743
0
0.0448608
0.0668335
0.043335
0.0216675
-0.00366211
0.0286865
0.00305176
0.0588989
0.0411987
0.0204468
0.0405884
0.0540161
0.0619507
0.0656128
0.0350952
0.0143433
0.0115967
-0.00366211
0.00488281
0.0189209
0.0289917
0.0378418
0.0250244
0.0314331
0.0357056
0.0717163
0.0631714
0.0454712
0.0476074
0.0213623
0.0283813
0.0305176
0.0387573
0.0411987
0.0457764
0.065918
0.0671387
0.0457764
0.0741577
0.0668335
0.071106
0.0753784
0.0790405
0.0808716
0.0604248
0.0622559
0.0723267
0.0802612
0.0897217
0.0991821
0.0985718
0.105896
0.10437
0.11261
0.110474
0.108337
0.0961304
0.0933838
0.085144
0.0930786
0.0796509
0.0814819
0.0741577
0.0708008
0.0698853
0.0823975
0.11261
0.10437
0.0906372
0.0732422
0.0628662
0.0765991
0.0927734
0.0933838
0.0964355
0.0912476
0.0802612
0.0778198
0.0915527
0.0961304
0.0915527
0.0820923
0.0799561
0.0964355
0.112
0.104065
0.102539
0.108643
0.117493
0.107117
0.0888062
0.0820923
0.0845337
0.0866699
0.0830078
0.0830078
0.0842285
0.0692749
0.0796509
0.0750732
0.0717163
0.0772095
0.0769043
0.0720215
0.0668335
0.0634766
0.0570679
0.0775146
0.0830078
0.0665283
0.0616455
0.0692749
0.0662231
0.0827026
0.0888062
0.0869751
0.071106
0.0411987
0.0497437
0.0521851
0.0421143
0.0247192
0.0164795
0.0088501
0.00701904
0.012207
0.0183105
0.015564
0.0250244
0.0149536
0.0186157
0.0134277
0.0125122
-0.00762939
-0.0177002
-0.0256348
-0.0286865
-0.0424194
-0.0363159
-0.0271606
-0.0415039
-0.0335693
-0.0415039
-0.0537109
-0.0537109
-0.0674438
-0.0665283
-0.0695801
-0.0714111
-0.0665283
-0.0741577
-0.0720215
-0.0665283
-0.0692749
-0.0482178
-0.0527954
-0.0527954
-0.0506592
-0.0506592
-0.0534058
-0.0622559
-0.072937
-0.0762939
-0.0778198
-0.0796509
-0.0823975
-0.0753784
-0.0753784
-0.0762939
-0.090332
-0.0787354
-0.0827026
-0.0942993
-0.0952148
-0.0927734
-0.0894165
-0.0857544
-0.0878906
-0.0891113
-0.0827026
-0.0753784
-0.0778198
-0.0808716
-0.0790405
-0.0723267
-0.0567627
-0.062561
-0.0643921
-0.0689697
-0.0631714
-0.0537109
-0.0628662
-0.0634766
-0.0628662
-0.0579834
-0.062561
-0.0598145
-0.0631714
-0.0524902
-0.0616455
-0.065918
-0.0674438
-0.0588989
-0.0595093
-0.0650024
-0.0762939
-0.0796509
-0.0845337
-0.0817871
-0.0796509
-0.0714111
-0.0646973
-0.0656128
-0.0726318
-0.0881958
-0.0881958
-0.0881958
-0.0906372
-0.0891113
-0.085144
-0.0723267
-0.0576782
-0.0512695
-0.0616455
-0.0616455
-0.0753784
-0.0744629
-0.0769043
-0.0949097
-0.112
-0.107727
-0.114746
-0.112
-0.116577
-0.129395
-0.100708
-0.0946045
-0.0973511
-0.100403
-0.111084
-0.124512
-0.116882
-0.107422
-0.0997925
-0.0799561
-0.0894165
-0.0997925
-0.0964355
-0.10376
-0.088501
-0.0543213
-0.0289917
-0.0640869
-0.0656128
-0.0656128
-0.067749
-0.0686646
-0.0439453
0.00427246
-0.00976562
-0.0714111
-0.100403
-0.112
-0.124817
-0.102539
-0.0982666
-0.0918579
-0.0906372
-0.101013
-0.141296
-0.145569
-0.0881958
-0.0674438
-0.0942993
-0.0921631
-0.085144
-0.0894165
-0.0622559
-0.0692749
-0.0866699
-0.109863
-0.0863647
-0.104065
-0.0811768
-0.0942993
-0.121155
-0.152893
-0.12146
-0.0866699
-0.0863647
-0.0942993
-0.101318
-0.103455
-0.0924683
-0.00823975
0.0286865
-0.0241089
-0.0762939
-0.104065
-0.123596
-0.111389
-0.0540161
-0.0442505
-0.057373
-0.06073
-0.085144
-0.137329
-0.178833
-0.194397
-0.142517
-0.0924683
-0.109558
-0.0820923
-0.072937
-0.0646973
-0.0454712
-0.0186157
-0.032959
-0.122986
-0.152893
-0.116272
-0.0515747
-0.0521851
-0.0497437
-0.0582886
-0.0216675
-0.0256348
-0.0680542
-0.0863647
-0.0186157
0.0350952
0.0588989
0.0476074
0.0595093
0.0634766
0.0338745
-0.00274658
-0.0253296
-0.0186157
0.0299072
0.0247192
0.0192261
0.0482178
0.0897217
0.0759888
0.0888062
0.124207
0.155029
0.105591
0.0469971
0.0280762
0.0595093
0.0720215
0.0576782
0.0732422
0.112915
0.126343
0.158386
0.185547
0.194092
0.184326
0.179749
0.129089
0.0921631
0.09552
0.122986
0.121155
0.0860596
0.0576782
0.0698853
0.115662
0.142517
0.180969
0.218506
0.253296
0.228882
0.0900269
0.0222778
0.0662231
0.132751
0.186768
0.18158
0.16449
0.136414
0.143433
0.149841
0.119019
0.0894165
0.107117
0.165405
0.192261
0.191345
0.142212
0.105591
0.0891113
0.107117
0.126038
0.141907
0.139771
0.124512
0.114441
0.0915527
0.0692749
0.0643921
0.062561
0.0836182
0.136414
0.162964
0.155945
0.111694
0.118408
0.134583
0.115967
0.0863647
0.118103
0.0906372
0.0576782
0.0616455
0.115662
0.145264
0.144958
0.118408
0.0949097
0.105286
0.0765991
0.072937
0.0814819
0.0946045
0.126648
0.0970459
0.108948
0.11261
0.110168
0.135193
0.145569
0.173645
0.172119
0.136719
0.0930786
0.065918
0.0875854
0.103455
0.0979614
0.10376
0.0991821
0.127563
0.137329
0.122986
0.10498
0.0915527
0.105286
0.116577
0.113831
0.108337
0.0994873
0.088501
0.055542
0.0784302
0.0778198
0.0521851
0.0363159
0.0259399
0.0228882
0.0521851
0.0769043
0.0695801
0.0582886
0.0622559
0.0628662
0.0387573
0.0454712
0.057373
0.0588989
0.057373
0.039978
0.0372314
0.0512695
0.0253296
0.017395
0.0137329
0.00701904
0.0128174
0.0213623
0.0231934
0
0.00640869
0.0134277
0.0289917
0.0482178
0.0634766
0.0509644
0.0418091
0.0137329
0
-0.00732422
-0.015564
-0.0289917
-0.00366211
-0.0112915
-0.0167847
0.0106812
0.0210571
-0.0302124
-0.0543213
-0.0466919
-0.0280762
-0.0509644
-0.0640869
-0.0491333
-0.0680542
-0.0576782
-0.0643921
-0.0637817
-0.0115967
0.00518799
-0.0125122
-0.0341797
-0.0390625
-0.0515747
-0.0592041
-0.0631714
-0.0686646
-0.0512695
-0.0686646
-0.0814819
-0.0674438
-0.0918579
-0.117493
-0.114136
-0.118713
-0.112305
-0.0790405
-0.0704956
-0.0665283
-0.0915527
-0.06073
-0.0427246
-0.0686646
-0.0863647
-0.0750732
-0.0561523
-0.0360107
-0.0390625
-0.0588989
-0.0769043
-0.0616455
-0.0482178
-0.0558472
-0.0582886
-0.0491333
-0.0357056
-0.0378418
-0.0421143
-0.0509644
-0.0317383
-0.0177002
-0.00701904
-0.022583
-0.0100708
-0.00335693
-0.0332642
-0.0256348
-0.0219727
-0.0350952
-0.0317383
-0.0149536
-0.0256348
-0.0256348
-0.0302124
-0.0427246
-0.0280762
-0.0448608
-0.0485229
-0.0457764
-0.0259399
-0.0424194
-0.0491333
-0.0512695
-0.0350952
-0.0421143
-0.0326538
-0.00823975
0.0134277
-0.010376
-0.0274658
-0.0463867
-0.0616455
-0.0405884
-0.0128174
0.0134277
-0.00640869
-0.0088501
-0.00213623
0.0167847
0.0265503
0.0570679
0.062561
0.0231934
-0.00610352
-0.0369263
-0.0540161
-0.0256348
-0.0411987
-0.0546265
-0.0366211
-0.0271606
-0.0357056
-0.020752
-0.0167847
-0.00488281
0.0119019
0.0131226
-0.0106812
-0.0238037
-0.0198364
0.00335693
-0.00640869
0.0201416
0.0405884
0.0524902
0.0180054
0.00823975
0.00762939
0.0161743
0.0201416
0.0146484
0.0112915
0.00335693
-0.00640869
-0.00671387
-0.0100708
0.00518799
0.00640869
0.0210571
0.00396729
-0.00366211
-0.0244141
-0.0305176
-0.0299072
0.00946045
0.0204468
0.0195312
0.0137329
-0.022583
-0.0482178
-0.0518799
-0.0473022
-0.0579834
-0.0564575
-0.0622559
-0.0506592
-0.0302124
-0.0314331
-0.012207
-0.0152588
0.0128174
0.0378418
0.0418091
0.0228882
0.00793457
0.00823975
0
-0.00610352
-0.0112915
-0.0119019
-0.0323486
-0.0262451
-0.0152588
-0.00671387
-0.0164795
-0.0479126
-0.0326538
-0.0335693
-0.0305176
-0.0491333
-0.03479
-0.017395
-0.0186157
-0.00305176
-0.0302124
-0.0473022
-0.0515747
-0.0360107
-0.0305176
-0.0357056
-0.032959
-0.0210571
-0.0137329
-0.00610352
-0.00335693
-0.0125122
-0.0305176
0.00183105
0.0317383
0.027771
0.0210571
0.00213623
0.0088501
0.027771
0.00732422
-0.00671387
-0.0088501
0.00732422
0.00274658
-0.0198364
-0.0344849
-0.03479
-0.0283813
-0.0335693
-0.0320435
-0.0350952
-0.0186157
-0.00823975
-0.0262451
-0.0375366
-0.0308228
-0.020752
-0.0152588
-0.00396729
-0.0161743
-0.0177002
-0.0256348
0.00183105
0.00762939
0.0268555
0.0192261
0.0180054
0.017395
0.0332642
0.0259399
0.0146484
0
0.00183105
0.00518799
0.0106812
-0.00244141
-0.0137329
-0.0146484
0
-0.0100708
-0.00488281
-0.0119019
-0.0234985
-0.0296021
0.0149536
0.0213623
-0.0292969
-0.0466919
-0.015564
-0.0109863
-0.0271606
0.0167847
0.0222778
0.00579834
0.0201416
0.0231934
0.00823975
-0.0152588
-0.0296021
-0.0238037
-0.0167847
0
-0.00579834
-0.0234985
-0.0210571
-0.00946045
-0.0119019
0.0119019
0.0427246
0.0418091
0.0497437
0.038147
0.0152588
0.0213623
0.0256348
0.0363159
0.0515747
0.0332642
0.0146484
0.0012207
-0.00518799
-0.00640869
-0.00579834
0.0115967
0.0338745
0.0247192
0.00457764
0.00457764
0.00762939
0.00610352
0.0106812
0.00183105
0.00335693
-0.00396729
0.000915527
-0.00518799
-0.010376
-0.0210571
-0.0296021
-0.0338745
-0.00793457
-0.00579834
-0.0198364
-0.00488281
0.0088501
-0.00396729
0.00671387
0.00610352
0.00610352
0.0125122
0.010376
0.0186157
0.0134277
-0.0112915
-0.0289917
-0.020752
-0.0201416
-0.0378418
-0.0350952
-0.0411987
-0.0338745
-0.0198364
-0.0180054
-0.0213623
-0.00701904
-0.0125122
-0.0299072
-0.0222778
-0.0152588
-0.0183105
-0.0192261
-0.022583
-0.0271606
-0.0369263
-0.0210571
0.00732422
0.00213623
0.0125122
-0.0100708
0.0204468
0.0308228
-0.0296021
-0.039978
-0.0421143
-0.0244141
-0.0244141
-0.0418091
-0.0637817
-0.0747681
-0.0631714
-0.0558472
-0.0497437
-0.0521851
-0.0384521
-0.0344849
-0.0338745
-0.0158691
0
0.00610352
-0.00671387
-0.0152588
-0.0213623
-0.015564
-0.0112915
0.00335693
0.000305176
-0.0314331
-0.0204468
-0.00335693
-0.0164795
-0.027771
-0.0283813
-0.015564
0
0.00152588
0.00335693
-0.00640869
-0.0137329
-0.0161743
-0.0137329
-0.0149536
-0.012207
-0.00305176
-0.0311279
-0.0308228
-0.00823975
-0.0100708
-0.00549316
0.00946045
0.00946045
0.00213623
-0.010376
-0.0180054
-0.0308228
-0.0271606
-0.0128174
0.0125122
0.00457764
0.00762939
0.0012207
-0.0250244
-0.0170898
-0.0274658
-0.0250244
-0.010376
0.0125122
0.0146484
0.00305176
-0.00610352
-0.0137329
-0.0134277
-0.0128174
0
0.0119019
0.0167847
0.00549316
-0.00244141
0.00701904
0.00518799
0.00946045
0.012207
0.027771
0.0210571
0.0201416
0.0112915
0.00244141
-0.00488281
-0.00488281
0.0177002
0.0485229
0.0418091
0.0247192
-0.00488281
-0.0210571
-0.0134277
-0.00823975
0.00244141
0.00732422
0.0115967
0.0149536
-0.0088501
0.00213623
0.00518799
0.00213623
0.00946045
0.00518799
-0.00488281
0
0
0.010376
0.0167847
0.0271606
0.0320435
0.0250244
-0.00427246
0.00488281
0.010376
0.0228882
0.015564
0.0231934
0.0259399
0.03479
0.0271606
0.0363159
0.0210571
0.0109863
0.0012207
0.0109863
0.00518799
0.0283813
0.0302124
0.0253296
-0.0012207
-0.0213623
-0.0268555
-0.0143433
-0.0100708
0.0271606
0.0567627
0.0546265
0.0231934
0.0192261
0
-0.00488281
-0.00366211
0.0140381
0.0186157
0.0256348
0.0256348
0.0271606
0.0204468
0.0125122
0.0305176
0.0289917
0.0378418
0.0341797
0.038147
0.0302124
0.0363159
0.020752
0.0268555
0.0271606
0.0305176
0.0216675
0.015564
0.0213623
0.0228882
0.0238037
0.0326538
0.039978
0.0393677
0.0448608
0.0415039
0.0289917
0.0256348
0.00823975
-0.0335693
-0.045166
-0.0088501
0.0088501
-0.00579834
0.00701904
0.0106812
0.0210571
0.0402832
0.0506592
0.0268555
0.0128174
0.0338745
0.0189209
0.0170898
-0.00152588
-0.0125122
-0.0170898
0.00305176
0.022583
0.0244141
0.00640869
0
-0.00823975
-0.00671387
-0.00488281
0.00244141
0.00457764
0
-0.00640869
-0.00366211
-0.0128174
-0.0204468
-0.0112915
-0.017395
-0.0100708
-0.00457764
0.00488281
0.0268555
0.0189209
0.00213623
-0.00305176
-0.00823975
-0.0186157
-0.0250244
-0.0222778
-0.0100708
-0.0112915
-0.0228882
-0.032959
-0.0213623
-0.0152588
-0.0112915
-0.0131226
-0.0088501
0.00152588
-0.00152588
-0.0100708
-0.0112915
-0.0125122
-0.0112915
-0.00366211
0.00396729
0.00610352
-0.0158691
-0.0198364
-0.0201416
-0.0170898
-0.022583
-0.0198364
0.00762939
0.00335693
-0.0088501
-0.010376
-0.00274658
0.00701904
-0.022583
-0.0231934
0.000915527
0.00793457
0.00488281
0.0119019
0.000915527
-0.00640869
-0.00762939
-0.00854492
-0.0177002
-0.00305176
-0.0106812
-0.0167847
-0.0292969
-0.012207
-0.00854492
-0.00610352
0.0186157
0.0204468
0.0280762
0.0302124
0.0100708
0.00427246
0.00946045
0.0198364
0.00946045
0.00946045
0.00762939
0.0012207
0.0192261
0.0326538
0.0427246
0.039978
0.0424194
0.0326538
0.0344849
0.022583
0.0195312
0.0448608
0.0476074
0.038147
0.0341797
0.0271606
0.0228882
0.0201416
0.0186157
0.0344849
0.0366211
0.039978
0.0299072
0.0454712
0.0466919
0.0534058
0.0561523
0.0662231
0.0708008
0.0653076
0.0601196
0.0735474
0.0808716
0.0588989
0.0473022
0.0534058
0.0424194
0.0524902
0.0759888
0.072937
0.065918
0.0637817
0.0497437
0.0558472
0.0643921
0.0604248
0.0534058
0.0628662
0.0689697
0.0723267
0.0680542
0.0619507
0.0442505
0.0506592
0.0653076
0.0747681
0.0732422
0.0619507
0.062561
0.0653076
0.0619507
0.0759888
0.0491333
0.0402832
0.057373
0.0888062
0.0857544
0.0765991
0.0698853
0.0802612
0.0604248
0.0427246
0.0366211
0.0476074
0.0527954
0.0524902
0.0448608
0.0421143
0.0558472
0.0286865
0.00823975
0.0186157
0.032959
0.0546265
0.039978
0.0344849
0.0552368
0.0234985
0.0460815
0.0436401
0.0482178
0.0521851
0.0537109
0.0497437
0.0405884
0.0415039
0.0558472
0.0595093
0.0537109
0.055542
0.0497437
0.0344849
0.0286865
0.0296021
0.0283813
0.0213623
0.0296021
0.0247192
0.0299072
0.0250244
0.0296021
0.0228882
0.0231934
0.0259399
0.0167847
0.0250244
0.0259399
0.0308228
0.0228882
0.0180054
0.0164795
0.0146484
0.0192261
0.020752
0.0228882
0.0201416
0.0238037
0.0262451
0.0350952
0.0372314
0.0326538
0.032959
0.0198364
0.0186157
0.0271606
0.0375366
0.03479
0.0390625
0.0100708
0.0125122
0.0161743
0.0335693
0.0354004
0.0296021
0.0311279
0.0228882
0.0296021
0.0265503
0.0198364
0.0167847
0.0296021
0.0332642
0.0265503
0.0204468
0.0302124
0.0253296
0.0231934
0.0302124
0.0531006
0.065918
0.0662231
0.072937
0.0720215
0.0662231
0.065918
0.0695801
0.0790405
0.0872803
0.0717163
0.0390625
0.0088501
0.0210571
0.0482178
0.0405884
0.0271606
0.0292969
0.0088501
0.0180054
0.0674438
0.0558472
0.012207
-0.0256348
-0.104065
-0.165405
-0.176697
-0.159912
-0.062561
0.108337
0.292053
0.331726
0.228577
0.110168
0.0180054
-0.0784302
-0.219421
-0.281372
-0.255432
-0.352783
-0.369568
-0.264282
-0.0976562
0.0518799
0.0888062
0.083313
0.169373
0.309448
0.292358
0.191345
0.0198364
-0.129089
-0.16571
-0.162048
-0.0622559
-0.0537109
-0.173035
-0.198059
-0.281067
-0.345459
-0.186157
0.0888062
0.227966
0.153809
0.0631714
-0.0167847
-0.154114
-0.278625
-0.281067
-0.0817871
0.0518799
-0.03479
-0.316162
-0.366211
-0.3302
-0.181885
0.154724
0.353088
0.324707
0.1828
0.141907
0.247192
0.387573
0.457153
0.513306
0.655212
0.401306
-0.0787354
-0.0784302
0.0439453
-0.0289917
-0.0997925
0.0393677
0.207214
0.297241
0.163574
0.13916
0.279846
0.263062
0.185852
0.204773
0.509644
0.748596
0.826111
0.402832
0.0820923
0.0534058
0.170288
0.181274
0.0961304
0.0622559
-0.174866
-0.385742
-0.434875
-0.395813
-0.261841
-0.0198364
0.132141
0.170898
0.484314
0.870972
1.08551
0.96405
0.687256
0.476685
0.292969
0.0942993
-0.135193
-0.352783
-0.487976
-0.411682
-0.206604
-0.127258
-0.184631
-0.129089
0.0802612
0.256042
0.25116
0.266418
0.487976
0.761414
0.661621
0.244446
-0.13092
-0.290527
-0.387573
-0.515747
-0.509033
-0.0985718
0.597534
1.09589
1.02844
0.56366
-0.13916
-0.686035
-1.0968
-1.22375
-1.01776
-0.659485
-0.324707
-0.0088501
0.26123
0.22522
0.0997925
-0.39856
-1.10138
-1.10413
-0.809021
-0.578308
-0.219727
0.0991821
0.393066
0.746155
0.904541
0.646667
0.376587
-0.137024
-0.638733
-0.558167
-0.189819
-0.0680542
-0.547791
-1.15875
-1.22345
-1.05743
-0.722656
-0.386353
-0.017395
0.47821
0.921326
0.890198
0.45166
-0.364075
-1.05011
-0.968323
-0.594482
-0.498657
-0.37262
-0.129089
0.10437
0.1474
-0.0567627
-0.458984
-0.883179
-0.694885
-0.305176
-0.0924683
-0.143433
-0.179138
0.143433
0.600891
0.765991
0.368652
-0.263062
-0.56427
-0.646973
-0.56427
-0.266418
-0.417175
-0.906677
-1.02783
-0.853271
-0.704346
-0.588074
-0.401917
-0.256653
-0.134583
0.000305176
0.335388
0.548401
0.44281
0.14801
-0.232849
-0.22583
-0.0140381
0.196838
0.27832
0.422058
0.519104
0.415039
-0.155334
-0.854187
-0.804138
-0.51239
-0.419617
-0.376892
-0.354309
-0.396729
-0.386963
-0.321655
-0.152283
-0.123291
-0.161743
-0.197754
-0.12146
-0.19989
-0.0656128
-0.00427246
-0.261536
-0.257874
0.216064
0.747681
0.984802
0.676575
0.0143433
0.0518799
0.184021
0
-0.201111
-0.0775146
0.245056
0.270691
0.015564
-0.404663
-0.733948
-0.618286
-0.0802612
0.218201
0.290833
0.151978
0.176697
0.370789
0.550537
0.313721
-0.359802
-0.511475
-0.166321
0.469055
0.596619
-0.0204468
-0.710144
-0.705261
-0.548096
-0.471802
-0.533447
-0.365906
-0.131836
0.343018
0.870056
1.11298
1.04706
0.26947
-0.171509
-0.262756
-0.115356
0.00579834
-0.166321
-0.261536
-0.350037
-0.142822
0.19989
0.255127
0.121765
0.205078
0.162048
0.393982
0.781555
1.12854
0.821838
0.535583
-0.0186157
-0.443115
-0.598755
-0.636902
-0.581055
-0.57251
-0.4422
-0.532837
-0.488892
-0.426941
-0.274353
0.0863647
0.42511
0.661926
0.663757
0.359192
0.0497437
-0.229187
-0.265503
-0.0906372
0.258484
0.810242
1.14136
0.54718
-0.100403
-0.356445
-0.213928
-0.0405884
-0.0744629
-0.240479
-0.0549316
0.372314
0.559998
0.33783
-0.380554
-0.518188
-0.380249
-0.320435
-0.428162
-0.26886
-0.187073
-0.169983
-0.125427
-0.11322
-0.0552368
0.0177002
0.108643
0.567627
1.02417
1.15021
0.577393
-0.418396
-0.644836
-0.523987
-0.389099
-0.291748
-0.216064
-0.173645
-0.134277
-0.0714111
-0.0262451
-0.015564
0
-0.0552368
-0.0680542
0.0537109
0.130615
0.124817
0.000915527
-0.0424194
-0.0579834
-0.078125
-0.0271606
0.0775146
0.0942993
0.0949097
-0.0234985
-0.0338745
-0.0784302
-0.0939941
-0.0210571
0.0140381
0.0469971
0.0863647
0.0787354
0.00457764
-0.0234985
-0.0704956
-0.16449
-0.144043
-0.133972
-0.141602
-0.118713
0.00915527
0.326233
0.805969
0.94635
0.739441
0.366821
-0.0674438
-0.111694
-0.193481
-0.435791
-0.439453
-0.306396
-0.307312
-0.312805
-0.289307
-0.259705
-0.196533
-0.14679
-0.136414
-0.175476
-0.185852
-0.140686
-0.0543213
0.0280762
0.150757
0.230408
0.203552
0.144653
-0.0393677
-0.224304
-0.23407
-0.152588
-0.102234
-0.0961304
-0.0973511
-0.0961304
-0.108948
-0.1297
-0.101013
-0.0830078
-0.0485229
-0.0131226
-0.0283813
-0.0427246
-0.0427246
-0.0344849
-0.0308228
-0.00518799
0.0595093
0.0698853
0.0628662
0.0906372
0.109558
0.0637817
0.032959
0.0344849
-0.00701904
-0.0665283
-0.0723267
-0.0881958
-0.050354
0.0570679
0.162659
0.214539
0.156555
0.0888062
0.0704956
0.176697
0.276794
0.344238
0.264282
0.00640869
-0.107727
-0.244446
-0.303345
-0.0100708
0.102234
0.110474
0.0622559
-0.022583
0.0930786
0.105896
0.00762939
-0.0588989
-0.0579834
-0.0662231
-0.0811768
-0.0643921
0.012207
0.105896
0.267944
0.458069
0.284119
-0.071106
-0.235291
-0.236511
-0.166016
-0.108337
-0.0234985
0.0662231
0.0552368
-0.0234985
-0.129089
-0.15686
-0.133057
-0.115662
-0.0735474
0.000915527
0.126648
0.190735
0.197144
0.184326
0.157776
0.0576782
-0.0540161
-0.0366211
0.0814819
0.162048
0.101929
-0.0378418
-0.175781
-0.198059
-0.197449
-0.15686
-0.136108
-0.127258
-0.10376
0.0415039
0.259094
0.38208
0.30365
0.150757
-0.0296021
-0.187378
-0.188599
-0.138245
-0.141907
-0.0592041
0.102234
0.179749
0.286865
0.273132
0.119324
0.0421143
-0.00457764
-0.0860596
-0.128174
-0.153809
-0.134583
-0.107727
-0.0540161
-0.00793457
0.0119019
0.0247192
0.112
0.339966
0.539856
0.564575
0.360413
0.00244141
-0.147705
-0.180969
-0.179443
-0.26062
-0.30304
-0.062561
0.247803
0.44342
0.395508
0.151062
0.0326538
0.0579834
0.272827
0.50293
0.582581
0.380554
-0.0961304
-0.141907
0.0152588
0.00335693
-0.201416
-0.297241
-0.198669
-0.133972
-0.100403
-0.142822
-0.151367
-0.143433
-0.122375
-0.0997925
-0.0970459
-0.0540161
-0.0405884
-0.0228882
-0.0125122
-0.000610352
0.00579834
0.0131226
0.0183105
0.0259399
0.045166
0.0283813
0.0344849
0.0527954
0.0622559
0.0350952
0.00274658
-0.0292969
-0.0164795
0.0234985
0.0219727
0.0543213
0.177612
0.315857
0.398865
0.474548
0.461121
0.361938
0.220337
0.103455
0.135498
0.221863
0.177002
-0.0100708
-0.235901
-0.411072
-0.332031
-0.0631714
0.177002
0.162964
-0.154114
-0.272827
-0.203857
-0.149841
-0.149536
-0.177307
-0.189819
-0.175476
-0.123291
-0.0662231
-0.050354
-0.0588989
-0.0491333
-0.0344849
-0.0338745
-0.0152588
-0.0158691
-0.0198364
-0.0497437
-0.0408936
-0.062561
-0.0540161
-0.0418091
-0.0515747
-0.0393677
-0.0482178
-0.0808716
-0.0997925
-0.0927734
-0.0598145
-0.0579834
-0.0576782
-0.0588989
-0.0616455
-0.0897217
-0.102844
-0.108948
-0.111389
-0.111389
-0.115967
-0.0973511
-0.107727
-0.106201
-0.0814819
-0.0616455
-0.0378418
-0.0842285
-0.126038
-0.0466919
0.0619507
0.168152
0.178223
0.0564575
-0.0167847
-0.062561
-0.0567627
-0.107422
-0.265198
-0.310669
-0.278015
-0.209045
-0.00457764
0.14801
0.197449
0.104065
-0.0946045
-0.147095
-0.223694
-0.229797
-0.215149
-0.22522
-0.192261
-0.107117
-0.0198364
0.0460815
0.00762939
-0.133667
-0.195923
-0.214844
-0.193481
-0.192871
-0.176392
-0.153503
-0.146484
-0.118408
-0.0796509
-0.120544
-0.172424
-0.140991
-0.0570679
0.0125122
0.0250244
-0.00640869
-0.0527954
-0.0613403
-0.0259399
-0.0286865
0.0134277
0.0549316
0.0543213
0.131836
0.180054
0.122986
-0.0183105
-0.121765
-0.143127
-0.0918579
-0.0415039
-0.00701904
0.00671387
0.0369263
0.0961304
0.159912
0.189209
0.187378
0.113831
0.116272
0.112305
0.0570679
0.0680542
-0.00762939
-0.0177002
0.0686646
0.0881958
0.159912
0.245667
0.18219
0.0604248
-0.0933838
-0.157776
-0.0967407
-0.0558472
-0.0799561
-0.0823975
-0.0674438
-0.0402832
0.0115967
0.0515747
0.0930786
0.0680542
0.0378418
0.0146484
-0.00244141
0.000915527
0.0369263
0.0918579
0.186768
0.247803
0.245361
0.122681
-0.0436401
-0.0772095
0.0421143
0.118103
0.152893
0.16571
0.162964
0.153198
0.207825
0.275269
0.366516
0.452576
0.455933
0.349121
0.183411
0.0463867
-0.0646973
-0.116882
-0.0387573
0.0518799
0.0753784
0.0979614
0.126038
0.210876
0.274353
0.289612
0.245667
0.161438
0.18158
0.223083
0.242004
0.212402
0.102234
0.0842285
0.141602
0.17395
0.178833
0.0952148
0.0100708
0.0442505
0.123291
0.168152
0.193787
0.221863
0.212097
0.19043
0.202026
0.205994
0.228577
0.296326
0.391541
0.474854
0.45166
0.343018
0.134583
-0.0613403
-0.0686646
0.0430298
0.171204
0.254517
0.309448
0.429382
0.610657
0.722046
0.672607
0.432129
0.189819
0.102844
-0.0128174
0.0430298
0.346985
0.540466
0.457153
0.122681
-0.119019
-0.217896
-0.152588
-0.0686646
0.0012207
0.0372314
0.085144
0.119934
0.128784
0.126648
0.153198
0.219116
0.273132
0.279541
0.267639
0.201111
0.166321
0.131531
0.125427
0.186462
0.162048
0.151672
0.166321
0.177612
0.185242
0.180054
0.176697
0.188599
0.191956
0.237732
0.294189
0.281982
0.288696
0.229797
0.173645
0.206299
0.218201
0.246887
0.281372
0.254822
0.172119
0.0650024
-0.050354
-0.0469971
0.00396729
0.0506592
0.0869751
0.0769043
0.083313
0.116577
0.176392
0.233765
0.246887
0.218201
0.220947
0.162048
0.0973511
0.0772095
0.0454712
0.0695801
0.148621
0.290527
0.33844
0.220947
0.0354004
-0.022583
0.0579834
0.103149
0.0643921
0.0680542
0.0534058
0.0820923
0.102539
0.131836
0.0958252
0.015564
0.00701904
-0.00457764
0.0241089
0.0701904
0.0909424
0.0619507
0.00396729
-0.0515747
-0.0753784
-0.0964355
-0.0881958
-0.0344849
0.00488281
0.0213623
0.0332642
0.0558472
0.0643921
0.0619507
0.128479
0.188904
0.139771
0.0405884
0.00335693
0.0305176
0.0393677
0.0497437
0.0402832
-0.038147
-0.0680542
-0.0372314
0.00183105
0.0537109
0.0772095
0.0704956
0.112915
0.145569
0.138855
0.100708
0.0701904
0.0665283
0.0692749
0.00335693
-0.0424194
-0.0973511
-0.107117
-0.100708
-0.0787354
-0.0778198
-0.0579834
-0.0421143
-0.00762939
0
0.0268555
0.0891113
0.173035
0.153503
0.137024
0.184326
0.101013
0.0778198
-0.0378418
-0.242615
-0.34668
-0.287781
-0.153198
-0.0473022
0.0106812
0.0778198
0.0717163
0.125122
0.209045
0.272827
0.256348
0.14679
0.0506592
-0.0302124
-0.101624
-0.0881958
-0.0827026
-0.0808716
-0.104675
-0.140686
-0.123596
-0.0900269
-0.0579834
-0.00396729
0.118408
0.195618
0.153503
0.0582886
0.00671387
-0.0540161
-0.0585938
-0.0814819
-0.0686646
-0.0616455
-0.111084
-0.123291
-0.0970459
-0.062561
-0.00610352
0.0109863
0.0186157
0.0610352
0.0448608
0.072937
0.164795
0.26123
0.252075
0.0942993
0.012207
0.0512695
0.0970459
0.117798
0.105591
0.0738525
0.0326538
0.0527954
0.111389
0.19928
0.22644
0.215759
0.161133
0.0857544
0.0750732
0.131531
0.166321
0.143738
0.122681
0.0164795
-0.137024
-0.145264
-0.0848389
-0.0271606
0.038147
0.0994873
0.176086
0.198669
0.122986
0.0421143
-0.038147
-0.0604248
-0.0619507
-0.017395
0.03479
0.0646973
0.0650024
0.06073
0.0732422
0.0915527
0.120544
0.161438
0.155945
0.218506
0.290833
0.34668
0.341797
0.24353
0.1828
0.196533
0.157471
0.126648
0.110779
0.0845337
0.0393677
0.0604248
0.0692749
0.0482178
0.0488281
0.130615
0.205383
0.253296
0.339355
0.349426
0.376282
0.385132
0.326538
0.153198
0.0448608
0.0839233
0.169983
0.207825
0.227356
0.160522
0.0515747
0.0231934
0.0201416
0.0784302
0.119019
0.117493
0.101624
0.124207
0.109558
0.11261
0.158386
0.235901
0.311584
0.333557
0.271912
0.195923
0.183105
0.144653
0.153198
0.238037
0.327454
0.334778
0.176392
0.0112915
-0.0354004
0.0131226
0.0579834
0.0558472
0.0088501
0.0662231
0.19928
0.223083
0.115662
0.00244141
-0.0845337
-0.0765991
-0.0698853
-0.0320435
-0.00457764
0.0509644
0.0653076
0.0222778
-0.0454712
-0.0579834
-0.0192261
0.062561
0.14679
