0.204773
0.0323486
-0.0924683
-0.170593
-0.258789
-0.249023
-0.201721
-0.169678
-0.106201
-0.102539
-0.103455
-0.0662231
0.0213623
0.0311279
-0.0921631
-0.182495
-0.205994
-0.211792
-0.185242
-0.078125
0.0521851
0.173035
0.242615
0.300598
0.270691
0.00793457
-0.198364
-0.172424
-0.139465
-0.131531
-0.0534058
0.0613403
0.106812
0.107727
0.0741577
0.0311279
-0.0640869
-0.144348
-0.139465
-0.0723267
-0.043335
-0.0408936
-0.0421143
-0.0234985
0.0485229
0.0982666
0.0674438
0.0238037
0.0506592
0.083313
0.140381
0.228271
0.320435
0.386963
0.333557
0.186462
0.0564575
-0.0158691
-0.0476074
-0.103149
-0.143738
-0.116272
-0.0793457
0.00396729
0.0460815
0.0671387
0.00762939
-0.0198364
0.0292969
0.0558472
0.0271606
-0.0112915
-0.0537109
-0.134888
-0.244751
-0.317383
-0.268555
-0.108337
0.0131226
0.0466919
0.0527954
0.0619507
0.00915527
-0.0994873
-0.0881958
-0.03479
-0.039978
-0.0534058
-0.0204468
0.0830078
0.200195
0.3302
0.382385
0.322571
0.132751
-0.0695801
-0.210571
-0.159302
0.00762939
0.169678
0.241699
0.100403
-0.0891113
-0.211487
-0.235901
-0.181885
-0.1297
-0.0897217
-0.0665283
-0.131836
-0.246582
-0.325012
-0.369263
-0.306396
-0.186462
-0.151367
-0.0595093
0.0436401
0.0286865
-0.00396729
0.0744629
0.155945
0.229492
0.300598
0.256042
0.0466919
-0.0881958
-0.0906372
-0.0564575
-0.0186157
-0.0332642
0.0244141
0.124817
0.188599
0.168762
0.204468
0.223694
0.209961
0.230408
0.261536
0.300293
0.315247
0.273438
0.166321
-0.0418091
-0.299072
-0.46051
-0.457764
-0.360413
-0.223694
-0.0949097
-0.0296021
0.0344849
0.0796509
0.0695801
0.0283813
0.0262451
0.0466919
-0.0234985
-0.0915527
-0.0927734
-0.0619507
-0.0320435
-0.0149536
-0.0396729
-0.0805664
-0.0848389
-0.0704956
0.00518799
0.0369263
-0.0283813
-0.067749
-0.0579834
-0.0430298
-0.0531006
-0.108948
-0.14801
-0.0939941
0.0543213
0.235901
0.340881
0.289612
0.22583
0.149841
0.0796509
0.0775146
0.0704956
0.100098
0.0671387
-0.0646973
-0.165405
-0.161438
-0.0622559
0.0326538
0.0869751
-0.0219727
-0.0564575
-0.0476074
-0.0570679
0.00640869
0.153198
0.212708
0.2005
0.207214
0.192261
0.11322
0.020752
-0.107422
-0.115356
-0.0619507
0.000915527
0.0424194
0.0350952
0.0845337
0.114136
0.134888
0.161133
0.157166
0.183105
0.19928
0.228577
0.246582
0.228577
0.108337
-0.0308228
-0.160828
-0.264587
-0.323486
-0.342712
-0.283203
-0.179138
-0.0549316
0.0354004
0.0149536
-0.071106
-0.100708
-0.115051
-0.0869751
-0.0601196
-0.0579834
-0.0866699
-0.090332
-0.0650024
-0.0152588
-0.00274658
0.0363159
0.0683594
0.0289917
-0.0332642
-0.038147
-0.0338745
-0.0320435
0.0506592
0.0848389
0.032959
-0.0112915
-0.022583
-0.00976562
-0.0152588
0.00976562
0.116882
0.200806
0.19043
0.178528
0.1297
0.0500488
-0.0411987
-0.0466919
0.119019
0.296631
0.359192
0.39917
0.569763
0.744324
0.733948
0.411987
-0.1651
-0.593262
-0.680847
-0.669556
-0.576477
-0.383606
-0.19928
-0.101013
-0.0338745
0.0164795
0.0515747
0.0338745
-0.0125122
-0.0598145
-0.0958252
-0.139465
-0.176392
-0.207825
-0.177002
-0.157471
-0.121765
-0.0805664
-0.0250244
0.0137329
0.0726318
0.119019
0.151978
0.148315
0.114441
0.108032
0.104065
0.0747681
0.039978
-0.00366211
0.00152588
-0.0140381
-0.00854492
-0.00579834
0.00701904
0.00701904
0.0177002
0.0256348
0.0384521
0.045166
0.0372314
0.0408936
-0.0100708
-0.0582886
-0.0256348
0.110474
0.2771
0.45105
0.535889
0.599365
0.587158
0.202942
-0.215454
-0.517578
-0.558167
-0.404968
-0.279236
-0.245361
-0.185242
-0.145874
-0.184631
-0.178833
-0.0894165
0.062561
0.224915
0.293579
0.257874
0.175781
0.0457764
-0.0476074
-0.0778198
-0.0622559
-0.0613403
-0.11261
-0.146484
-0.137939
-0.172119
-0.173035
-0.114441
-0.0537109
0.00976562
0.0149536
0.0637817
0.10437
0.0811768
0.0308228
0.0198364
0.0769043
0.184326
0.284119
0.282898
0.187683
0.0610352
-0.0131226
-0.0393677
-0.00488281
0.0454712
0.0482178
0.0204468
-0.00854492
-0.0662231
-0.071106
-0.0454712
-0.0274658
-0.0485229
-0.0692749
-0.0796509
-0.0476074
0.00518799
0.0366211
0.0680542
0.104675
0.149841
0.163879
0.160217
0.170898
0.209351
0.265198
0.357971
0.448914
0.385437
0.170898
-0.131226
-0.446167
-0.507202
-0.33905
-0.189819
-0.145264
-0.160522
-0.187683
-0.173645
-0.162964
-0.209961
-0.238037
-0.179443
-0.0500488
0.0579834
0.101013
0.195618
0.311584
0.386047
0.403137
0.379028
0.256653
-0.00305176
-0.170288
-0.185242
-0.137329
-0.0466919
-0.0012207
0.0469971
0.0811768
0.0915527
0.127563
0.139771
0.152283
0.259705
0.233154
0.134277
-0.0134277
-0.160828
-0.299072
-0.349121
-0.333557
-0.300903
-0.253601
-0.179443
-0.162048
-0.134277
-0.0689697
-0.0189209
-0.00762939
-0.0457764
-0.03479
0.0302124
0.027771
-0.0256348
-0.118408
-0.159912
-0.0848389
-0.0167847
0.0228882
0.06073
0.111084
0.172729
0.222473
0.237732
0.213623
0.0643921
-0.0616455
-0.0857544
-0.0595093
-0.0909424
-0.127258
-0.1297
-0.0961304
0.0378418
0.110168
0.17395
0.229492
0.198059
0.173035
0.151062
0.145264
0.174561
0.234985
0.248413
0.157166
-0.0289917
-0.167542
-0.190735
-0.1651
-0.137939
-0.0784302
0.0344849
0.144653
0.229797
0.280151
0.258179
0.06073
-0.183411
-0.265198
-0.240784
-0.220642
-0.156555
-0.134583
-0.201111
-0.281982
-0.355225
-0.325928
-0.230713
-0.17395
-0.09552
0.00549316
0.0430298
0.0341797
0.0393677
0.0247192
0.0253296
0.0701904
0.100708
0.0219727
-0.0396729
-0.0408936
-0.0549316
-0.00335693
0.111084
0.1828
0.202637
0.239563
0.175476
0.0848389
0.0872803
0.0717163
0.0167847
0.00366211
-0.0100708
0.0219727
0.0750732
0.057373
-0.0115967
-0.0582886
-0.121155
-0.138855
-0.115051
-0.0747681
-0.062561
-0.0192261
0.0631714
0.135498
0.223389
0.289001
0.353394
0.452881
0.436707
0.241699
0.0311279
-0.140991
-0.34729
-0.492249
-0.440979
-0.296631
-0.195312
-0.0915527
0.00915527
0.0524902
-0.0579834
-0.0869751
-0.0326538
0.111084
0.221252
0.225525
0.196838
0.158081
0.0604248
-0.0387573
-0.0354004
-0.0271606
-0.0241089
-0.0601196
-0.1474
-0.233765
-0.186462
-0.109558
-0.0088501
0.115662
0.206604
0.219421
0.0485229
-0.1828
-0.248718
-0.256042
-0.242615
-0.18219
-0.0930786
-0.032959
0.0457764
0.101624
0.0698853
-0.0296021
-0.0405884
0.0875854
0.120544
0.0775146
0.0192261
-0.0164795
-0.0738525
-0.154724
-0.190125
-0.196533
-0.196838
-0.169678
-0.0949097
0.0012207
0.119934
0.303345
0.355835
0.203552
0.0967407
0.0393677
0.0671387
0.122986
0.133972
0.0744629
0.0183105
-0.0088501
0.0247192
0.0842285
0.197144
0.345459
0.456238
0.484314
0.411072
0.283813
0.290833
0.242615
-0.0512695
-0.345764
-0.398865
-0.324097
-0.236206
-0.071106
-0.0820923
-0.307312
-0.375061
-0.254517
-0.0805664
-0.0854492
-0.159912
-0.21637
-0.171814
-0.0894165
0.00701904
0.142517
0.282593
0.389404
0.483398
0.461121
0.356445
0.18219
0.0231934
-0.0668335
-0.128479
-0.192871
-0.2005
-0.120239
-0.0588989
-0.0436401
-0.120239
-0.177307
-0.170593
-0.10437
0.00610352
0.0875854
0.0753784
0.125732
0.273438
0.304565
0.229187
0.158691
0.0915527
-0.0534058
-0.108948
-0.0836182
-0.045166
-0.0424194
-0.0701904
-0.148926
-0.170593
-0.101624
-0.0427246
-0.0717163
-0.0964355
-0.00366211
0.140076
0.22644
0.221252
0.177917
0.0668335
0.0128174
0.012207
0.027771
-0.012207
-0.045166
-0.0735474
-0.071106
-0.0939941
-0.116272
-0.119629
-0.114136
-0.111389
-0.102234
-0.071106
-0.015564
0.0372314
0.0482178
0.00610352
-0.012207
0.00793457
0.0296021
0.0588989
0.13916
0.171204
0.209045
0.24231
0.281677
0.302734
0.286865
0.207214
0.0820923
-0.0765991
-0.152588
-0.140991
-0.0854492
0.0720215
0.249634
0.430908
0.465698
0.269165
0.00732422
-0.137329
-0.114441
-0.149536
-0.198364
-0.162048
-0.10498
-0.115967
-0.157776
-0.171814
-0.206299
-0.13092
0.0308228
0.14679
0.204468
0.171204
0.0564575
-0.0790405
-0.266418
-0.397339
-0.285034
-0.0134277
0.342712
0.635071
0.773315
0.662537
0.447083
0.200806
-0.151672
-0.588989
-0.817261
-0.792542
-0.652161
-0.462952
-0.288391
-0.214233
-0.198059
-0.154419
-0.104675
-0.0924683
-0.10498
-0.0741577
0.0302124
0.093689
0.0744629
0.0308228
-0.0149536
-0.0686646
-0.0488281
0.0131226
0.0527954
0.108643
0.083313
0
-0.0283813
-0.0149536
-0.00946045
-0.000610352
-0.0186157
0.00244141
0.0524902
0.0872803
0.0930786
0.108643
0.0662231
0.00823975
0.0576782
0.0942993
0.109558
0.117798
0.0997925
0.0524902
0.00701904
-0.0454712
-0.0524902
-0.0466919
-0.0653076
0
0.108643
0.292664
0.39093
0.316162
0.0909424
-0.085144
-0.177307
-0.173645
-0.19043
-0.156555
-0.0491333
0.0875854
0.169983
0.248413
0.28656
0.210571
0.0985718
0.0698853
0.11261
0.200195
0.286255
0.32196
0.109863
-0.102234
-0.252991
-0.39032
-0.411072
-0.323486
-0.306396
-0.280457
-0.343628
-0.46051
-0.335083
-0.111389
0.0442505
0.0634766
0.0326538
-0.0418091
-0.108948
-0.141602
-0.169983
-0.183105
-0.189819
-0.125427
-0.0918579
-0.0949097
-0.085144
-0.0637817
-0.038147
-0.0296021
-0.015564
-0.0149536
-0.00946045
-0.0180054
0.0088501
-0.0088501
-0.0167847
0.0234985
0.0863647
0.129089
0.19165
0.259399
0.208435
0.148315
0.13916
0.102844
0.0973511
0.124207
0.0997925
0.0268555
-0.0759888
-0.136108
-0.140076
-0.120239
-0.102234
-0.123291
-0.141602
-0.0875854
0.0265503
0.0994873
0.135498
0.238037
0.288391
0.271606
0.183411
0.0772095
-0.032959
-0.0537109
-0.0338745
-0.0732422
-0.0921631
0.0088501
0.126343
0.177307
0.177002
0.141907
-0.0314331
-0.21759
-0.300903
-0.237427
-0.18219
-0.032959
0.162048
0.175476
0.0613403
-0.062561
-0.210876
-0.400391
-0.430298
-0.173645
0.13092
0.246887
0.0460815
-0.202942
-0.379944
-0.387268
-0.229187
-0.117188
-0.0637817
-0.0534058
-0.0219727
0.0497437
0.16571
0.284119
0.343933
0.193787
-0.017395
-0.127258
-0.0448608
0.131836
0.325317
0.541992
0.614319
0.473633
0.189819
-0.10498
-0.31311
-0.408936
-0.400696
-0.340271
-0.299072
-0.235596
-0.100708
0.0720215
0.287781
0.37323
0.273132
0.0582886
-0.163574
-0.385132
-0.53772
-0.487671
-0.32959
-0.168762
-0.108948
-0.0540161
0.0115967
0.0622559
0.085144
0.0686646
0.0411987
0.0491333
0.0875854
0.127563
0.189514
0.26001
0.336609
0.431213
0.477295
0.447693
0.300598
0.137329
-0.0216675
-0.144958
-0.122986
-0.0634766
-0.0762939
-0.130615
-0.117188
-0.14801
-0.196228
-0.141602
-0.120544
-0.107422
-0.0198364
0.093689
0.238342
0.377808
0.368042
0.196533
-0.0518799
-0.219727
-0.291138
-0.258484
-0.197449
-0.129089
-0.0994873
-0.0817871
-0.0546265
-0.0772095
-0.0796509
-0.0616455
-0.0177002
0.0784302
0.192261
0.194702
0.175476
0.197144
0.135193
0.119019
0.167236
0.0830078
-0.0372314
-0.109863
-0.198364
-0.272522
-0.301514
-0.171509
0.0750732
0.25116
0.267334
0.270996
0.255737
0.157776
0.105896
0.12207
0.0442505
0.0759888
0.162659
0.146179
0.0640869
-0.0296021
-0.113525
-0.166626
-0.144653
-0.0646973
-0.0363159
-0.0250244
-0.0213623
-0.093689
-0.11261
-0.149841
-0.198364
-0.17334
-0.154419
-0.130005
-0.0714111
0.0805664
0.103149
0.0411987
0.0253296
0.00244141
-0.0430298
-0.0598145
-0.0579834
-0.017395
0.083313
0.182495
0.215454
0.22583
0.0927734
-0.153809
-0.269165
-0.256653
-0.133667
0.0119019
0.0823975
0.0302124
-0.0991821
-0.205078
-0.215759
-0.101318
0.0485229
0.0747681
-0.00793457
-0.0241089
0.0698853
0.247803
0.435791
0.493469
0.374756
0.168457
-0.0457764
-0.137024
-0.12085
-0.0161743
0.0723267
0.0280762
-0.125427
-0.267639
-0.270081
-0.202637
-0.144958
-0.151672
-0.180664
-0.264282
-0.357666
-0.344238
-0.284119
-0.175171
-0.0790405
-0.0134277
0.045166
0.137024
0.231323
0.308838
0.310669
0.254211
0.194092
0.108948
-0.0634766
-0.246277
-0.291748
-0.266418
-0.20752
-0.178528
-0.0817871
0.0408936
0.175476
0.317688
0.471497
0.563049
0.480347
0.256653
-0.0137329
-0.176086
-0.166931
-0.0302124
0.0643921
0.0570679
0.0378418
-0.0997925
-0.122375
-0.10437
-0.104065
-0.0491333
0.0881958
0.226746
0.263367
0.110168
-0.133667
-0.289307
-0.307312
-0.193481
-0.0686646
-0.00549316
0.00793457
-0.00823975
-0.0369263
-0.0796509
-0.083313
-0.055542
0.000915527
0.0714111
0.0918579
0.0524902
-0.0125122
-0.0460815
-0.0765991
-0.0338745
0.0109863
0.083313
0.116577
0.0143433
-0.120239
-0.204773
-0.221863
-0.167542
-0.0372314
0.0527954
0.0842285
0.0869751
0.154419
0.130005
-0.071106
-0.227966
-0.110474
0.0866699
0.191345
0.151062
0.0012207
-0.0350952
0.0491333
0.101929
0.110779
-0.0112915
-0.0680542
-0.0253296
0.0411987
0.0970459
0.201111
0.360413
0.506897
0.535583
0.383911
0.0119019
-0.392151
-0.501404
-0.371399
-0.210876
-0.0942993
-0.0424194
-0.0125122
0.027771
0.06073
0.109253
0.18158
0.224304
0.182495
0.151672
0.112305
0.0375366
0.0411987
0.0717163
-0.00335693
-0.157471
-0.247192
-0.265808
-0.237122
-0.0875854
0.15564
0.385437
0.464478
0.396729
0.159607
-0.193481
-0.508728
-0.67688
-0.61676
-0.362549
-0.0827026
0.0900269
0.0610352
0.0146484
-0.0158691
-0.0582886
-0.0808716
0.0210571
0.206604
0.252686
0.184937
0.120544
0.135193
0.136108
0.0857544
0.0723267
0.071106
0.0820923
0.0372314
-0.00396729
0.00640869
0.0500488
0.0723267
0.0708008
0.130005
0.26062
0.267029
0.19104
0.0720215
-0.00305176
-0.0427246
-0.124817
-0.149536
-0.147705
-0.122375
-0.158081
-0.248718
-0.242615
-0.169067
-0.0775146
0.0967407
0.27771
0.391541
0.404968
0.335388
0.194702
0.0222778
-0.103149
-0.246277
-0.299988
-0.220947
-0.0891113
0.0338745
0.109253
0.263367
0.430908
0.448914
0.285339
0.114136
-0.0692749
-0.346069
-0.439758
-0.378418
-0.229492
-0.104065
-0.00946045
0.0238037
0
0.010376
0.0308228
0.057373
0.132446
0.301208
0.416565
0.364075
0.205078
0.0357056
-0.0918579
-0.207214
-0.180969
-0.0949097
-0.00244141
0.0991821
0.110779
0.0473022
-0.0588989
-0.142212
-0.219727
-0.264893
-0.217896
-0.153503
-0.00457764
0.09552
0.107117
0.109253
0.134277
0.146484
0.065918
0.0378418
0.0482178
-0.0100708
-0.0231934
0.0143433
0.0164795
0.0869751
0.083313
0.0411987
-0.045166
-0.142822
-0.153809
-0.168762
-0.090332
0.00335693
0.0473022
0.0549316
0.0289917
0.0439453
0.0463867
0.0350952
0.0875854
0.223083
0.435791
0.56488
0.472107
0.26001
0.0357056
-0.176086
-0.221252
-0.207825
-0.200195
-0.187683
-0.209656
-0.193787
-0.137329
-0.118713
-0.0857544
-0.0421143
-0.0415039
-0.0640869
-0.106812
-0.132751
-0.0802612
-0.0900269
-0.104065
-0.100708
-0.0741577
-0.0418091
0.0311279
0.0881958
0.107422
0.127258
0.0973511
0.0463867
-0.00427246
-0.0183105
-0.0424194
-0.0921631
-0.0741577
-0.0323486
-0.0170898
0.0222778
0.133972
0.249329
0.24231
0.142517
0.0100708
-0.057373
-0.0411987
0.0137329
0.0238037
-0.00396729
-0.00518799
0.0537109
0.12085
0.213623
0.207214
0.151672
0.143433
0.0564575
-0.0866699
-0.212708
-0.150146
-0.133972
-0.0921631
-0.0436401
0.0302124
0.103149
0.071106
0.0827026
0.117798
0.107117
0.16571
0.240173
0.159912
0.0549316
0.0180054
-0.0790405
-0.107727
-0.101624
-0.192871
-0.281677
-0.281677
-0.243225
-0.132141
0.0479126
0.179443
0.24292
0.135193
-0.141296
-0.430908
-0.472107
-0.317688
-0.0708008
0.170898
0.22644
0.164185
0.0704956
-0.00640869
0.0534058
0.0900269
0.0552368
-0.0201416
-0.0900269
-0.0741577
-0.027771
0.0332642
0.108643
0.213623
0.279846
0.280762
0.180664
-0.022583
-0.310669
-0.419617
-0.327454
-0.20752
-0.163879
-0.105896
-0.0350952
0.0100708
-0.0125122
-0.0827026
-0.0378418
0.0912476
0.209656
0.263062
0.220032
0.155334
0.125122
0.0576782
0.0088501
-0.0241089
-0.0201416
0.0302124
0.136414
0.161133
0.123291
0.0228882
-0.0900269
-0.18219
-0.152588
0.0201416
0.198975
0.227966
0.177612
0.072937
0.0149536
-0.0241089
-0.0775146
-0.0845337
-0.0830078
-0.0759888
-0.00946045
0.0448608
0.102844
0.109253
0.027771
-0.121155
-0.14679
-0.149841
-0.148315
-0.115967
-0.0567627
0.00427246
0.0720215
0.0436401
-0.00457764
-0.101929
-0.107727
-0.0708008
-0.0109863
-0.00366211
-0.0338745
0.0302124
0.0634766
-0.0808716
-0.0784302
0.0378418
0.111389
0.19165
0.223389
0.213623
0.144653
0
-0.166931
-0.207825
-0.153198
-0.0546265
0.0839233
0.126648
0.0842285
-0.0241089
-0.110474
-0.155029
-0.140991
-0.106506
-0.0628662
-0.0216675
0
-0.0219727
0.0588989
0.1474
0.167542
0.166626
0.150452
0.107117
0.144348
0.117798
0.0201416
-0.103149
-0.241089
-0.282898
-0.132141
0.0839233
0.227356
0.342712
0.32074
0.133972
-0.134583
-0.33783
-0.345154
-0.247803
-0.16449
-0.0891113
-0.015564
-0.00915527
0.00274658
0.055542
0.140076
0.187683
0.164185
0.0848389
-0.0491333
-0.108337
-0.128784
-0.153503
-0.0784302
-0.0268555
0.000305176
0.0839233
0.177612
0.215759
0.301514
0.360107
0.288391
0.158386
-0.0418091
-0.257874
-0.383301
-0.322876
-0.14679
-0.00518799
0.107422
0.123901
0.0839233
0
-0.0967407
-0.14801
-0.151062
-0.0866699
0.00457764
0.00610352
-0.0109863
0.0109863
0.0338745
-0.0167847
-0.0479126
0.0601196
0.15564
0.196533
0.240784
0.309753
0.376892
0.390625
0.316467
0.161133
-0.0448608
-0.176392
-0.229492
-0.111084
0.0817871
0.158386
0.09552
-0.0942993
-0.197449
-0.174866
-0.131836
-0.0445557
-0.0369263
-0.274963
-0.395203
-0.273743
-0.09552
0.038147
0.131836
0.154724
0.127563
0.0244141
0.00671387
0.109558
0.158386
0.202332
0.220642
0.177917
-0.00579834
-0.178833
-0.242004
-0.220642
-0.135193
-0.0262451
0.0305176
0.0521851
0.0616455
0.132446
0.190735
0.166321
0.120544
-0.00427246
-0.136414
-0.0366211
0.241089
0.592346
0.907898
0.984192
0.685425
0.144653
-0.220337
-0.358887
-0.357361
-0.333557
-0.256653
-0.150757
-0.067749
-0.0619507
-0.150452
-0.216064
-0.235901
-0.317078
-0.379028
-0.357361
-0.307922
-0.213318
-0.0814819
0.0524902
0.101013
0.0271606
-0.0756836
-0.11322
-0.0946045
-0.0140381
0.181885
0.37262
0.383301
0.264893
0.0921631
-0.0274658
-0.0299072
-0.0717163
-0.103455
-0.0372314
0.027771
0.115356
0.149841
0.103455
-0.0643921
-0.188904
-0.147705
-0.0338745
0.0488281
0.0396729
0.0408936
0.027771
0.00823975
0.00823975
0.0216675
0.0753784
0.119324
0.109558
0.0848389
0.0402832
-0.0439453
-0.109558
-0.0933838
-0.0537109
0.00183105
0.0259399
-0.00274658
-0.0012207
0.0253296
0.151978
0.256042
0.339661
0.422668
0.419006
0.270996
0.0302124
-0.131836
-0.254822
-0.270081
-0.234985
-0.125732
-0.0537109
-0.050354
-0.0357056
-0.0662231
-0.14679
-0.203857
-0.237122
-0.232239
-0.185242
-0.169983
-0.142517
-0.0637817
0.0604248
0.141602
0.230408
0.279236
0.249939
0.0662231
-0.111389
-0.134888
-0.0671387
-0.0405884
0.0360107
0.107117
0.0906372
0.043335
0.0216675
0.0500488
0.0149536
-0.00244141
-0.0204468
-0.0170898
-0.0210571
-0.0360107
0.015564
0.045166
0.0296021
-0.0863647
-0.19165
-0.167542
-0.0375366
0.078125
0.193176
0.30365
0.321045
0.111694
-0.083313
-0.0808716
0.108032
0.406189
0.744324
1.01196
0.981445
0.492859
-0.140991
-0.521851
-0.639954
-0.505676
-0.355225
-0.374756
-0.540161
-0.596619
-0.457458
-0.2771
-0.161133
-0.0985718
-0.0665283
-0.0863647
-0.132141
-0.240784
-0.34668
-0.333862
-0.205078
-0.112915
-0.0320435
-0.0140381
0.00762939
0.0137329
0.0131226
0.0350952
0.0537109
0.0387573
-0.0408936
-0.122375
-0.0921631
0.0134277
0.166931
0.245667
0.263062
0.289307
0.296326
0.299683
0.282898
0.208435
0.0912476
0.0088501
0.0241089
0.0436401
-0.00671387
-0.0601196
-0.118103
-0.173645
-0.191956
-0.205383
-0.2005
-0.129089
-0.0192261
0.0686646
0.126343
0.148315
0.172424
0.144958
0.038147
0.0805664
0.202026
0.257874
0.236816
0.18158
0.143127
0.161743
0.150757
0.0244141
-0.0698853
-0.0247192
0.0619507
0.159302
0.170898
0.020752
-0.189514
-0.26825
-0.245056
-0.17334
-0.152893
-0.187073
-0.225525
-0.301208
-0.362549
-0.423889
-0.443726
-0.428467
-0.411377
-0.290222
-0.0942993
0.147705
0.290833
0.341492
0.26947
0.196838
0.122986
0.150146
0.263977
0.281982
0.18158
0.106812
0.0640869
0.0753784
0.0888062
0.0762939
0.0735474
0.0613403
0.0656128
0.129089
0.170288
0.203857
0.209656
0.229797
0.310974
0.434265
0.328674
0.00549316
-0.205994
-0.268555
-0.286865
-0.31189
-0.266418
-0.204773
-0.204773
-0.200195
-0.204163
-0.189819
-0.149841
-0.114136
-0.0558472
0.0363159
0.0643921
0.0582886
0.0747681
0.072937
0.0769043
0.0509644
0.0778198
0.126038
0.153198
0.15564
0.151062
0.0604248
-0.0643921
-0.117798
-0.105591
-0.0918579
-0.0378418
0.0158691
0.0527954
0.0582886
0.0192261
0.0170898
0.098877
0.166931
0.121765
-0.124512
-0.449829
-0.525513
-0.343628
-0.126343
-0.0143433
0.00549316
0.0863647
0.175476
0.228577
0.245972
0.186157
0.103455
-0.0219727
-0.109863
-0.133667
-0.0488281
0.0463867
0.141602
0.177917
0.196838
0.185852
0.0927734
-0.0546265
-0.105286
-0.0265503
0.0250244
0.0314331
0.0137329
0.032959
0.0244141
-0.0204468
-0.0109863
0.015564
0.00335693
0.0222778
0.0631714
0.0814819
0.0540161
0.0183105
0.0436401
0.0497437
0.00915527
-0.0680542
-0.151672
-0.209961
-0.143127
-0.0479126
0
0.00427246
0.00335693
-0.0134277
-0.0827026
-0.202332
-0.255127
-0.178223
-0.0515747
0
0.0271606
0.0921631
0.189819
0.279846
0.295105
0.180054
0.0201416
-0.0360107
-0.0537109
-0.038147
0.0360107
0.0811768
0.043335
-0.071106
-0.0933838
-0.0650024
-0.0228882
0.0488281
0.197754
0.346375
0.400696
0.367737
0.284424
0.0784302
-0.10376
-0.22644
-0.328674
-0.340576
-0.305176
-0.213318
-0.0759888
0.0314331
0.105896
0.050354
-0.0708008
-0.0839233
-0.00732422
-0.0146484
-0.0479126
-0.0482178
-0.0912476
-0.0692749
0
0.0106812
-0.03479
-0.0112915
0.00915527
0.057373
0.071106
0.0088501
-0.0405884
-0.101318
-0.090332
-0.0476074
0.0259399
0.0149536
-0.0784302
-0.0881958
-0.0427246
-0.065918
-0.0360107
0.0747681
0.197754
0.19104
0.123291
0.0497437
-0.022583
-0.0592041
-0.104065
-0.144043
-0.0906372
0.00854492
0.0765991
0.0515747
0.0662231
0.108337
0.168457
0.263367
0.296326
0.19043
0.0442505
-0.0137329
-0.0958252
-0.138855
-0.101318
-0.0857544
0.012207
0.140686
0.177917
0.169678
0.0958252
-0.0146484
-0.0894165
-0.0476074
0.010376
-0.00701904
-0.0982666
-0.119324
-0.152893
-0.185852
-0.144348
-0.0704956
-0.0558472
-0.0537109
0.0170898
0.0289917
-0.0360107
-0.122986
-0.158997
-0.102234
-0.00640869
0.110168
0.233154
0.286865
0.276184
0.327454
0.300903
0.0939941
-0.0494385
-0.116272
-0.0814819
-0.0463867
-0.0726318
-0.038147
-0.0204468
-0.0088501
-0.020752
-0.0296021
-0.0344849
-0.0448608
-0.0186157
0.0415039
0.0973511
0.0500488
0.0610352
0.0900269
-0.0485229
-0.231628
-0.305481
-0.229492
-0.0686646
0.122681
0.216064
0.0869751
-0.10498
-0.177612
-0.154724
-0.106506
-0.0915527
-0.0668335
-0.0167847
-0.0320435
-0.0161743
0.0302124
0.0961304
0.185852
0.224304
0.148621
0.0317383
-0.0210571
-0.0106812
0.101013
0.223694
0.263367
0.245056
0.167236
0.0341797
-0.0500488
-0.00732422
0.022583
0.0396729
0.0119019
0.0131226
0.0860596
0.127869
0.0106812
-0.0805664
-0.100708
-0.0650024
-0.0616455
-0.117493
-0.186462
-0.172729
-0.108337
-0.0482178
-0.0259399
-0.00762939
0.0012207
0.0427246
0.0772095
0.0170898
-0.00946045
0.0643921
0.1828
0.189514
0.19928
0.216064
0.253296
0.315247
0.281677
0.115051
-0.152588
-0.291138
-0.309143
-0.242004
-0.233154
-0.191956
-0.0604248
0.0662231
0.109558
0.172729
0.263367
0.280457
0.213013
0.110474
-0.0708008
-0.231628
-0.163269
-0.119934
-0.0726318
-0.0259399
-0.017395
-0.0527954
-0.00518799
0.0323486
0.0570679
0.0613403
0.0183105
0.00823975
-0.0457764
-0.0875854
-0.0787354
-0.0906372
-0.0796509
-0.0650024
-0.0204468
0.0146484
-0.00183105
-0.039978
-0.0601196
-0.0894165
-0.152283
-0.215454
-0.198669
-0.176086
-0.0469971
0.0933838
0.211792
0.273438
0.328979
0.374756
0.415344
0.397644
0.232849
0.0537109
0.0668335
0.171509
0.278931
0.33783
0.265808
0.0335693
-0.15564
-0.262756
-0.337219
-0.299377
-0.21637
-0.19104
-0.215149
-0.213623
-0.226135
-0.197754
-0.13855
-0.124512
-0.133362
-0.13092
-0.128479
-0.133362
-0.0866699
0.0228882
0.132446
0.227966
0.231018
0.161133
0.0750732
0.0524902
0.0924683
0.193787
0.330811
0.289612
0.0518799
-0.128174
-0.055542
-0.0143433
-0.0296021
-0.0515747
-0.0427246
-0.0390625
-0.0967407
-0.112915
-0.0256348
0.0357056
0.0747681
0.0488281
-0.0396729
-0.0939941
0.00823975
0.188599
0.316467
0.342712
0.228577
0.0180054
-0.102539
-0.196838
-0.173035
-0.166321
-0.222778
-0.20813
-0.0927734
-0.00396729
0.0442505
-0.00457764
-0.0888062
-0.101624
-0.102539
0.00701904
0.0543213
-0.0311279
-0.204163
-0.255432
-0.162659
-0.0372314
0.0656128
0.090332
0.13031
0.136414
0.12207
0.0796509
0.00213623
-0.0201416
0.0531006
0.137939
0.177307
0.162964
0.116272
0.0515747
0.122681
0.161438
0.183105
0.232239
0.120544
-0.057373
-0.143433
-0.134583
-0.0930786
-0.0421143
0.0372314
0.0302124
-0.0735474
-0.198669
-0.190125
-0.118103
-0.00457764
0.108032
0.125122
0.0149536
-0.178223
-0.241699
-0.209961
-0.177612
-0.115051
-0.00152588
0.0643921
0.0610352
0.032959
-0.0143433
-0.0201416
-0.0311279
-0.0527954
-0.0875854
-0.0534058
-0.0134277
-0.0482178
0.00793457
0.10498
0.0961304
0.0537109
0.0839233
0.119629
0.103455
0.0195312
-0.100403
-0.201111
-0.141907
0.00793457
-0.00305176
-0.0631714
-0.0823975
-0.0769043
-0.0283813
0.00335693
0.062561
0.0933838
0.0778198
0.0588989
0.0332642
0.00213623
-0.0161743
-0.0152588
0
0.0656128
0.149841
0.16571
0.18158
0.224304
0.223694
0.207825
0.21698
0.159302
0.0149536
-0.0744629
-0.0469971
0.00579834
0.0839233
0.0628662
-0.0418091
-0.140686
-0.117188
-0.00396729
0.122375
0.198975
0.233154
0.305176
0.43335
0.457458
0.416565
0.205383
-0.107727
-0.395508
-0.520325
-0.485229
-0.406799
-0.257568
-0.170898
-0.155029
-0.0933838
-0.0585938
-0.0805664
-0.0772095
0.045166
0.226746
0.202332
-0.0296021
-0.245361
-0.329895
-0.339661
-0.273743
-0.158386
-0.0265503
0.020752
0.0393677
0.111084
0.196838
0.235901
0.133972
-0.0866699
-0.245667
-0.240479
-0.213623
-0.158386
-0.0387573
0.0582886
0.182495
0.222473
0.196228
0.142212
0.0253296
-0.0735474
-0.0820923
-0.0296021
0.0817871
0.248108
0.331421
0.310059
0.213623
0.0830078
0.0372314
0.0561523
-0.0256348
-0.189514
-0.310059
-0.310669
-0.236206
-0.0564575
0.122986
0.307617
0.55481
0.656433
0.547485
0.335083
-0.0601196
-0.350647
-0.272522
-0.0363159
0.129395
0.1651
0.0231934
-0.205688
-0.328369
-0.33905
-0.283813
-0.217285
-0.169678
-0.13855
-0.0921631
-0.00152588
0.0949097
0.123596
0.0540161
-0.0427246
-0.0918579
-0.0088501
0.195007
0.35614
0.261536
-0.00579834
-0.23468
-0.290222
-0.285645
-0.305786
-0.241089
-0.0341797
0.154724
0.258789
0.246887
0.218506
0.214539
0.210571
0.152283
0.158386
0.218506
0.224304
0.148315
0.0469971
-0.0350952
-0.185242
-0.20813
-0.223694
-0.229187
-0.249939
-0.280762
-0.289917
-0.322571
-0.318298
-0.119324
0.0491333
0.0363159
-0.039978
-0.0158691
0.0180054
0.107727
0.152283
0.14679
0.0497437
-0.0888062
-0.121765
-0.0756836
0.00610352
0.0772095
0.113831
0.119324
0.141907
0.139465
0.140076
0.108948
0.0933838
0.171814
0.241699
0.230408
0.155945
0.0372314
-0.110474
-0.155334
-0.0863647
0.0234985
0.149231
0.199585
0.247803
0.248413
0.228271
0.136414
0.0125122
0.00640869
-0.012207
-0.050354
-0.0817871
-0.101013
-0.175476
-0.171814
-0.0854492
-0.0372314
-0.0244141
-0.0674438
-0.143127
-0.252991
-0.249634
-0.120239
-0.0765991
-0.0234985
0.169067
0.444946
0.52063
0.325928
0.00274658
-0.269165
-0.432739
-0.413513
-0.297241
-0.119934
0.00549316
0.0140381
-0.0326538
-0.0439453
-0.0439453
-0.00427246
0.065918
0.18219
0.299683
0.245056
0.098877
-0.0372314
-0.125122
-0.231018
-0.263977
-0.21759
-0.117188
0.0100708
0.0772095
0.0842285
0.124817
0.150757
0.168152
0.213013
0.260925
0.185242
0.0256348
-0.0897217
-0.0778198
-0.0137329
-0.0714111
-0.130615
-0.155029
-0.14679
-0.0378418
0.0775146
0.0930786
0.0259399
0.0192261
-0.0283813
-0.132446
-0.143433
-0.150757
-0.128174
-0.0869751
-0.0695801
-0.0109863
-0.03479
-0.116577
-0.195618
-0.186462
-0.0485229
0.12207
0.258179
0.249634
0.245972
0.223694
0.158691
0.197754
0.256042
0.340576
0.32135
0.0875854
-0.227356
-0.401611
-0.266724
-0.071106
0.065918
0.1297
0.131226
0.147095
0.0680542
-0.012207
-0.109253
-0.19104
-0.193787
-0.0814819
0.0326538
0.0997925
0.0979614
-0.0704956
-0.222168
-0.267029
-0.261536
-0.203857
-0.159302
-0.0582886
0.106201
0.238037
0.193787
0.111084
0.0283813
-0.0265503
0.00762939
0.0592041
0.15564
0.175171
0.0839233
-0.0509644
-0.172119
-0.233459
-0.184326
-0.0588989
0.00274658
0.050354
0.0839233
0.0970459
0.149841
0.218201
0.233765
0.126648
0.027771
-0.0561523
-0.109863
-0.123291
-0.155334
-0.200195
-0.128784
0.0457764
0.249939
0.376587
0.338135
0.17395
0.0106812
-0.144653
-0.171509
-0.121765
-0.113525
-0.090332
-0.0338745
0.0588989
0.0491333
0.0823975
0.171204
0.221863
0.125427
-0.0012207
-0.133362
-0.191345
-0.177002
-0.135193
-0.109863
-0.0796509
-0.0274658
-0.038147
-0.106201
-0.19104
-0.200806
-0.173645
-0.140076
-0.134888
-0.160828
-0.124817
-0.0372314
0.00610352
-0.0250244
-0.0222778
0.0259399
0.0906372
0.19165
0.314636
0.358276
0.408325
0.431519
0.323486
0.197449
0.104065
0.0418091
0.0161743
0.0643921
0.117493
0.127869
0.158081
0.317993
0.350342
0.264282
0.215759
0.141296
0.0546265
-0.0811768
-0.176086
-0.385132
-0.499268
-0.315247
-0.140381
-0.118103
-0.133667
-0.0946045
-0.0686646
-0.0756836
-0.183411
-0.244446
-0.248108
-0.222168
-0.211792
-0.187378
-0.0479126
0.145874
0.32196
0.409546
0.293884
0.0622559
-0.119019
-0.223083
-0.310059
-0.332336
-0.271606
-0.180969
-0.0900269
-0.0518799
-0.0595093
-0.0296021
0.0527954
0.137329
0.19043
0.184326
0.0875854
-0.0137329
-0.0866699
-0.0793457
-0.0402832
0.00549316
0.00549316
-0.00396729
-0.0405884
-0.0613403
-0.0311279
0.0558472
0.136414
0.270691
0.341797
0.325928
0.28717
0.128784
-0.0915527
-0.234985
-0.242615
-0.137329
-0.158386
-0.191345
-0.16571
-0.14679
-0.09552
-0.015564
0.144653
0.294189
0.303955
0.312805
0.330505
0.292358
0.209351
0.132446
-0.151672
-0.372925
-0.391541
-0.383606
-0.332031
-0.234985
-0.145569
-0.0408936
0.0476074
0.0524902
0.0268555
-0.00366211
0.0366211
-0.00152588
-0.0216675
0.0302124
0.0714111
0.202026
0.328979
0.347595
0.312195
0.0799561
-0.195312
-0.258789
-0.1474
0.00823975
0.0234985
0
0.0323486
0.038147
0.0482178
0.135193
0.207825
0.149536
0.0552368
-0.0592041
-0.177002
-0.207214
-0.158081
-0.119629
-0.181885
-0.255432
-0.192261
-0.072937
-0.00610352
0.0564575
0.0747681
0.0527954
0.0125122
0.0485229
0.141602
0.207214
0.264282
0.362244
0.338745
0.176697
0.0604248
-0.133362
-0.313416
-0.369873
-0.336914
-0.293274
-0.21698
-0.0912476
0.0125122
0.0500488
0.0588989
-0.00183105
-0.0259399
0.00396729
-0.0152588
-0.0164795
0.00488281
0.0430298
0.0186157
0.0201416
0.0497437
0.0469971
0.0415039
0.0747681
0.128784
0.196838
0.258484
0.177917
0.0979614
0.0866699
0.0772095
0.111694
0.106506
0.0338745
0.0317383
0.0424194
-0.0488281
-0.233459
-0.32196
-0.276489
-0.139465
0.0430298
0.136108
0.152283
0.128174
0.0741577
0.00793457
-0.0527954
-0.139771
-0.237427
-0.239258
-0.201111
-0.132751
-0.11322
-0.102844
-0.0704956
-0.0299072
-0.0119019
0.057373
0.0839233
0.0338745
0.0286865
0.0408936
0.133972
0.26947
0.363159
0.395508
0.339966
0.136414
-0.117188
-0.224915
-0.265808
-0.236816
-0.143127
-0.10376
-0.104675
-0.0323486
0.219421
0.372925
0.394592
0.368042
0.283203
0.127258
-0.0131226
0.0152588
0.144653
0.0875854
-0.0686646
-0.162964
-0.173035
-0.121765
-0.0158691
0.0268555
0.0946045
0.154724
0.20752
0.222778
0.119934
-0.00518799
-0.0720215
-0.170898
-0.156555
-0.0491333
-0.0482178
-0.173035
-0.208435
-0.118103
-0.0189209
0.0415039
0.0363159
-0.0363159
-0.0979614
-0.0915527
-0.017395
0.134277
0.212097
0.194702
0.0561523
-0.150452
-0.3125
-0.232544
-0.0350952
0.107117
0.108032
-0.0210571
-0.119629
-0.21759
-0.221863
-0.117493
-0.0128174
0.0460815
0.0244141
0.0189209
-0.0256348
-0.0137329
0.0610352
0.168762
0.196533
0.176697
0.162964
0.189209
0.205078
0.170288
0.118713
0.00823975
-0.0915527
-0.100708
-0.083313
-0.106506
-0.132141
-0.154419
-0.125427
-0.0598145
-0.0262451
0.0161743
0.101013
0.135193
0.218811
0.331726
0.329895
0.335693
0.308533
0.0238037
-0.189514
-0.309753
-0.302124
-0.159607
-0.0247192
0.0302124
-0.0158691
-0.0466919
-0.0100708
-0.0552368
-0.155029
-0.281677
-0.368652
-0.243225
0.0256348
0.13092
0.0698853
-0.00915527
-0.0228882
0.0469971
0.224304
0.394592
0.401306
0.262146
0.115356
0.0482178
0.0646973
0.0946045
0.0878906
0.06073
0.0332642
-0.000915527
-0.0396729
-0.0296021
0.0350952
0.055542
0.0100708
-0.103455
-0.183716
-0.212708
-0.228577
-0.215149
-0.157166
-0.0674438
-0.0405884
-0.0656128
-0.140381
-0.131531
-0.0296021
0.0476074
0.0906372
0.133057
0.150757
0.0552368
-0.0762939
-0.124207
-0.116272
-0.0469971
0.0613403
0.120544
0.0985718
0.039978
-0.0418091
-0.156555
-0.2948
-0.252075
-0.146484
-0.038147
0.0363159
0.0671387
0.0387573
-0.00183105
0.0222778
0.0680542
0.0674438
0.0680542
0.0845337
0.127563
0.170288
0.170898
0.266418
0.401611
0.481873
0.477905
0.354919
0.117188
-0.072937
-0.19989
-0.218506
-0.11261
-0.0460815
-0.0491333
-0.0750732
-0.129089
-0.173035
-0.104675
0.039978
0.180664
0.2948
0.282288
0.234375
0.226746
0.332031
0.326233
0.250854
0.144958
-0.0231934
-0.200195
-0.306396
-0.40802
-0.410461
-0.472412
-0.48645
-0.332336
-0.163269
-0.0234985
0.16571
0.309448
0.256348
0.12146
0.067749
-0.062561
-0.141602
-0.113831
-0.0799561
-0.0744629
-0.0772095
0.0189209
0.0518799
0.0131226
0.0125122
-0.0219727
-0.0805664
-0.124817
-0.167847
-0.250244
-0.311584
-0.318604
-0.268555
-0.0805664
0.144653
0.265808
0.295715
0.306396
0.252075
0.120239
0.0146484
-0.0326538
-0.0616455
-0.0543213
0.0112915
0.0784302
0.131226
0.212097
0.186462
0.123901
0.0570679
-0.00976562
-0.0830078
-0.100403
-0.121155
-0.0869751
-0.0238037
0.185852
0.4422
0.63446
0.71167
0.604858
0.318909
0.0735474
-0.0439453
-0.133362
-0.249634
-0.423584
-0.519409
-0.407104
-0.194092
-0.0210571
0.00640869
-0.107727
-0.18219
-0.119324
0.00915527
0.0363159
-0.0567627
-0.104065
-0.0619507
0.0314331
0.115967
0.140686
0.154114
0.164795
0.140991
0.0674438
0.00732422
-0.0323486
-0.0616455
-0.0549316
-0.0390625
-0.0363159
0.0527954
0.22522
0.391541
0.391541
0.322266
0.207825
0.00671387
-0.169373
-0.23407
-0.154419
-0.0778198
-0.078125
-0.100708
-0.123291
-0.0576782
-0.00366211
0.0961304
0.160217
0.108032
0.015564
-0.0796509
-0.134583
-0.141602
-0.0543213
0.0180054
0.0506592
0.0152588
0.0506592
0.21637
0.299072
0.263367
0.192261
-0.0216675
-0.26825
-0.300598
-0.118103
0.0845337
0.100403
0.078125
0.0805664
0.0549316
-0.00152588
0.017395
0.0735474
0.0836182
0.00183105
-0.0546265
-0.100708
-0.166931
-0.204773
-0.158997
-0.0494385
0.110474
0.297852
0.359192
0.284119
0.148315
0.0552368
-0.0149536
-0.118713
-0.195618
-0.264587
-0.205383
-0.151978
-0.124817
-0.0894165
-0.0289917
-0.0436401
-0.0244141
0.142517
0.318909
0.56427
0.715637
0.618896
0.349731
0.0598145
-0.229797
-0.41748
-0.453796
-0.422363
-0.352783
-0.271912
-0.176086
-0.139771
-0.170593
-0.183411
-0.151062
-0.106201
-0.0927734
-0.0759888
-0.0637817
-0.0518799
-0.0411987
-0.0280762
-0.0332642
-0.0106812
0.043335
0.0802612
0.109863
0.123596
0.158997
0.268555
0.336914
0.263977
0.104065
-0.0967407
-0.329285
-0.469666
-0.316467
-0.0836182
0.0177002
0.0845337
0.0653076
-0.022583
-0.0744629
-0.0942993
-0.109863
-0.12085
-0.0262451
0.0482178
0.116577
0.10437
0.0482178
0.0961304
0.19104
0.273743
0.327148
0.367432
0.419617
0.419312
0.310364
0.136414
0.06073
0.00640869
-0.0186157
-0.0283813
-0.0357056
-0.0814819
-0.10498
-0.196533
-0.218811
-0.119629
-0.0491333
0.020752
0.0753784
0.0857544
0.0616455
0.0335693
-0.0170898
-0.09552
-0.192566
-0.210876
-0.156555
-0.0888062
0.142517
0.386963
0.427856
0.280457
-0.0344849
-0.361023
-0.424805
-0.299683
-0.214539
-0.242004
-0.290222
-0.237427
-0.0811768
0.0454712
0.117798
0.157471
0.101318
-0.0311279
-0.198364
-0.307312
-0.279236
-0.135498
0.185852
0.324707
0.339966
0.222168
0.0979614
-0.057373
-0.187683
-0.229797
-0.241394
-0.174255
-0.0595093
-0.0296021
-0.0445557
-0.0579834
-0.0534058
-0.057373
-0.0567627
-0.0378418
-0.017395
0.0360107
0.0985718
0.137634
0.12085
0.0665283
0.0646973
0.0946045
0.161743
0.190125
0.133972
0.0827026
0.0857544
0.111084
0.135193
0.126648
0.0564575
-0.071106
-0.0906372
-0.0421143
0.043335
0.0640869
-0.0564575
-0.205383
-0.261536
-0.196228
-0.0283813
0.020752
-0.0671387
-0.181885
-0.337219
-0.326233
-0.157776
-0.020752
0.0466919
-0.0167847
-0.0268555
0.0256348
0.00640869
-0.0857544
-0.120239
-0.134277
-0.122681
-0.00946045
0.162964
0.334778
0.483704
0.533447
0.395203
0.192261
-0.057373
-0.14801
-0.141907
-0.165405
-0.152588
-0.0909424
0.0146484
0.172424
0.365295
0.492249
0.516357
0.523987
0.429993
0.171509
-0.0869751
-0.298462
-0.42511
-0.388489
-0.249023
-0.133972
-0.0680542
-0.050354
-0.0497437
-0.027771
0.000915527
0.0216675
0.0332642
0.0567627
0.0897217
0.0152588
-0.10498
-0.250854
-0.336914
-0.281372
-0.122986
-0.0949097
-0.141602
-0.154114
-0.143738
-0.154114
-0.10376
-0.0518799
0.0012207
0.06073
0.112
0.197754
0.310364
0.391541
0.418396
0.375977
0.185242
-0.0088501
-0.151367
-0.202942
-0.212097
-0.159302
-0.111084
-0.0753784
-0.142517
-0.232239
-0.211182
-0.137024
-0.0244141
0.0827026
0.160828
0.122375
0
-0.0939941
-0.120239
-0.093689
0.0531006
0.148621
0.215759
0.276184
0.20752
0.0164795
-0.0759888
-0.137024
-0.195312
-0.209351
-0.150757
0.0299072
0.138855
0.1651
0.203857
0.262146
0.383301
0.399475
0.28656
0.110474
0.0271606
0.0601196
-0.00335693
-0.185852
-0.32074
-0.360718
-0.339661
-0.292969
-0.218811
-0.143127
-0.11322
-0.0430298
0.134277
0.19043
0.146179
0.090332
-0.00549316
-0.117188
-0.155945
-0.132751
-0.085144
-0.0500488
-0.0012207
0.0634766
0.0933838
0.0787354
0.0140381
-0.0222778
-0.0259399
-0.0576782
-0.0524902
-0.0564575
-0.0888062
-0.134583
-0.134888
-0.0778198
0.038147
0.108643
0.0350952
-0.0296021
-0.0765991
-0.0762939
-0.0253296
0.0384521
0.128479
0.214233
0.290527
0.263062
0.138855
-0.0177002
-0.133362
-0.121155
-0.0930786
-0.0927734
-0.149536
-0.15625
-0.109863
-0.0384521
-0.00518799
0.0961304
0.215759
0.357361
0.39978
0.435486
0.439148
0.335693
0.0616455
-0.177612
-0.253296
-0.265503
-0.266418
-0.220337
-0.0875854
0.00579834
-0.0497437
-0.168152
-0.196228
-0.180054
-0.157471
-0.130615
-0.0857544
-0.0164795
0.11322
0.278625
0.357666
0.34668
0.119629
-0.127563
-0.200806
-0.157471
-0.0378418
0.0463867
-0.0497437
-0.176086
-0.243225
-0.194702
-0.0402832
0.120239
0.20874
0.244446
0.213013
0.0897217
-0.0564575
-0.150757
-0.17395
-0.1651
-0.0949097
0.0146484
0.0756836
0.043335
-0.102539
-0.155945
-0.134583
-0.00823975
0.14801
0.214539
0.188599
0.143738
0.0857544
0.0302124
-0.0189209
0.0106812
0.0692749
0.107117
0.13031
0.140686
0.160217
0.108337
-0.0283813
-0.204468
-0.254517
-0.174561
-0.108643
-0.118713
-0.0720215
-0.00152588
0.00946045
0.0161743
0.00762939
-0.00610352
-0.020752
-0.0616455
-0.09552
-0.125122
-0.134583
-0.118408
-0.0524902
0.0564575
0.144043
0.157166
0.13031
0.100098
0.11322
0.0994873
0.0869751
0.0668335
0.0439453
0.0839233
0.224304
0.384827
0.439148
0.413208
0.32959
0.250549
0.105286
-0.197144
-0.340881
-0.318604
-0.362244
-0.365906
-0.266113
-0.217896
-0.209351
-0.18219
-0.148315
0.0369263
0.293579
0.395508
0.347595
0.195618
0.027771
-0.0708008
-0.106201
-0.135498
-0.184631
-0.213318
-0.193481
-0.207825
-0.266724
-0.240173
-0.138855
-0.10437
-0.0326538
0.0723267
0.207214
0.255737
0.20752
0.111389
0.0195312
-0.0759888
-0.201111
-0.173645
-0.0643921
-0.0198364
-0.0534058
-0.101318
-0.100708
-0.0341797
0.0109863
0.0476074
0.0982666
0.0848389
0.0430298
-0.0274658
-0.0881958
-0.116882
-0.0842285
-0.00946045
0.0692749
0.0769043
0.0570679
0.0958252
0.145874
0.138855
0.115356
0.144348
0.167847
0.141907
0.213318
0.260925
0.220642
0.140076
0.0509644
-0.0863647
-0.201721
-0.201416
-0.224915
-0.210266
-0.0616455
0.104065
0.136414
0.0894165
-0.0561523
-0.21759
-0.357971
-0.362549
-0.280762
-0.117798
0.0473022
0.122681
0.1474
0.169373
0.135498
0.0497437
-0.022583
0.0463867
0.158997
0.254822
0.291748
0.153198
-0.0396729
-0.169678
-0.210266
-0.183105
-0.202942
-0.169983
-0.0198364
0.138855
0.245056
0.285034
0.223694
0.174255
0.143127
0.109253
-0.0262451
-0.115662
-0.118713
-0.0967407
-0.10437
-0.176086
-0.195618
-0.144653
-0.0753784
-0.0143433
0.0369263
0.0811768
0.0662231
0.0912476
0.0671387
0.0143433
0.0201416
0.072937
0.113525
0.152893
0.181274
0.161743
0.0668335
0.0350952
0.0866699
0.163574
0.220642
0.231628
0.0750732
-0.147095
-0.211182
-0.169983
-0.16571
-0.191956
-0.197754
-0.169373
-0.116577
-0.116577
-0.0881958
-0.0469971
-0.0759888
-0.140686
-0.140381
-0.0790405
-0.0994873
-0.0747681
0.0283813
0.0604248
0.0317383
0.0628662
0.0738525
0.0570679
0.0350952
0.0311279
0
-0.0378418
-0.0143433
0.0344849
0.0302124
-0.0167847
-0.0787354
-0.0296021
0.0338745
0.0900269
0.0994873
0.0894165
0.045166
0.0146484
-0.0296021
-0.0268555
0.00946045
0.0259399
0.022583
0.0271606
0.00274658
-0.0192261
-0.0192261
0
0.0524902
0.0531006
0.119019
0.225525
0.25116
0.19989
0.0979614
-0.00366211
-0.039978
0.0643921
0.251465
0.285339
0.211792
0.177002
0.169983
0.151062
0.0524902
-0.108948
-0.188293
-0.172119
-0.0610352
0.132751
0.294495
0.345154
0.210266
-0.00915527
-0.209656
-0.327454
-0.306091
-0.273132
-0.159912
-0.0292969
0.0244141
0.0354004
-0.0204468
-0.0738525
-0.0759888
-0.0613403
-0.0741577
-0.113831
-0.0888062
0.0216675
0.186462
0.276184
0.254211
0.153198
0.0271606
-0.0161743
0.0735474
0.0878906
-0.0631714
-0.150452
-0.160828
-0.177612
-0.169983
-0.0769043
0.00701904
0.0427246
0.0372314
0.0360107
0.0378418
0.0650024
0.0738525
0.1297
0.159607
0.0741577
-0.0546265
-0.143433
-0.119324
-0.0274658
0.0582886
0.118103
0.122986
0.0582886
-0.072937
-0.151367
-0.130005
-0.0402832
-0.0296021
-0.0561523
-0.0997925
-0.126953
-0.124207
-0.0918579
-0.0735474
-0.0357056
0.10498
0.23407
0.231018
0.146179
0.0125122
-0.102234
-0.128784
-0.10376
-0.062561
-0.0424194
-0.0375366
0.0106812
0.045166
0.0546265
0.0650024
0.090332
0.0927734
0.0952148
0.121765
0.12207
0.0811768
0.0177002
-0.0863647
-0.132446
-0.137329
-0.126038
-0.0302124
0.163574
0.38208
0.454407
0.447388
0.415955
0.285339
-0.0656128
-0.298157
-0.386353
-0.377502
-0.209045
-0.0930786
-0.0674438
-0.0216675
0.062561
0.0442505
-0.0128174
0.0952148
0.305481
0.380859
0.351868
0.284119
0.13855
-0.0610352
-0.145264
-0.151367
-0.123291
-0.146179
-0.272522
-0.307922
-0.200195
-0.107422
-0.0634766
-0.0271606
-0.0421143
-0.0759888
-0.0866699
-0.101013
-0.127869
-0.0918579
0.0787354
0.226746
0.276794
0.23407
0.119324
-0.0366211
-0.12146
-0.15564
-0.201111
-0.23468
-0.185852
0.0128174
0.228577
0.26947
0.236511
0.106506
-0.0802612
-0.0808716
-0.0424194
-0.0881958
-0.223389
-0.273743
-0.178223
-0.0692749
-0.00671387
0.0363159
0.085144
0.0973511
0.101318
0.116272
0.085144
-0.0180054
-0.0741577
-0.10498
-0.0949097
-0.0372314
0
-0.000915527
0.0790405
0.1474
0.112305
0.0354004
0.00671387
-0.0259399
-0.06073
-0.0265503
0.0131226
0.0558472
0.120544
0.198669
0.219421
0.196533
0.155334
0.0482178
-0.0494385
-0.128479
-0.177917
-0.146179
-0.0680542
0.0473022
0.177307
0.223694
0.166321
0.0808716
0.0360107
0.00579834
0.00976562
-0.11322
-0.263367
-0.26947
-0.205383
-0.115051
-0.0588989
0.0582886
0.22583
0.30304
0.222168
0.107117
-0.0100708
-0.173035
-0.302429
-0.215454
0.00457764
0.131226
0.167236
0.132751
0.0537109
-0.0378418
-0.0665283
-0.0311279
0
0.00488281
0.0100708
0.00579834
0.0534058
0.0958252
0.162048
0.132751
0.0338745
0.0228882
0.00549316
-0.0112915
-0.0445557
-0.0448608
-0.0296021
-0.0753784
-0.105591
-0.0250244
0.0289917
-0.0131226
-0.0524902
-0.0708008
-0.0564575
0.000610352
0.101318
0.13855
0.159912
0.209045
0.199585
0.141602
-0.039978
-0.21637
-0.347595
-0.37262
-0.256958
-0.0421143
0.205994
0.358582
0.39032
0.316772
0.14679
-0.0839233
-0.186462
-0.142517
-0.126343
-0.153503
-0.224304
-0.315552
-0.318909
-0.202942
-0.0125122
0.0860596
0.0350952
-0.0515747
-0.134583
-0.186462
-0.209351
-0.188904
-0.0765991
0.0991821
0.275574
0.406799
0.491028
0.487976
0.35553
0.173035
0.0253296
0.027771
-0.0234985
-0.118103
-0.1297
-0.088501
-0.0393677
-0.0421143
-0.0540161
-0.0115967
0.022583
0.0708008
0.105286
0.09552
0.0753784
-0.0152588
-0.181274
-0.273743
-0.266418
-0.206604
-0.045166
0.10376
0.101929
0.0177002
0.00762939
-0.0289917
0.0149536
0.0115967
-0.032959
-0.0228882
0.0354004
0.0592041
0.0762939
0.108948
0.198975
0.272217
0.323181
0.362854
0.308838
0.119629
-0.0765991
-0.175476
-0.281677
-0.390625
-0.414124
-0.387878
-0.325012
-0.309143
-0.283813
-0.187683
-0.0845337
0.0750732
0.202942
0.306091
0.386047
0.319214
0.140076
0.0631714
0.110779
0.141296
0.0274658
-0.039978
0.176086
0.447998
0.539246
0.436707
0.184021
-0.220642
-0.46051
-0.315857
-0.21637
-0.166321
-0.113831
-0.083313
-0.00366211
-0.0286865
-0.159912
-0.233459
-0.169983
-0.138855
-0.113525
-0.0848389
-0.0616455
-0.113831
-0.0808716
-0.0698853
-0.0497437
-0.0506592
-0.0262451
-0.020752
-0.0296021
-0.0610352
0.00762939
0.135498
0.136719
0.0238037
-0.0476074
-0.0521851
-0.0616455
-0.127563
-0.173645
-0.176392
-0.162659
-0.12085
-0.0341797
0.0845337
0.12085
0.0985718
0.0668335
0.0326538
0.0180054
-0.0271606
-0.0997925
-0.0332642
0.0561523
0.133667
0.164795
0.19989
0.264587
0.322571
0.301819
0.299377
0.291138
0.241699
0.161438
0.0637817
-0.0811768
-0.133972
-0.00366211
0.0543213
0.0622559
-0.022583
-0.0906372
-0.159302
-0.128784
-0.0189209
0.0665283
0.0360107
-0.0881958
-0.147705
-0.113831
-0.173035
-0.280457
-0.361938
-0.34668
-0.250244
-0.147705
-0.0442505
0.0332642
0.120544
0.194397
0.132751
-0.0100708
-0.0817871
-0.0289917
0.121765
0.205383
0.231628
0.248718
0.154114
0.0753784
-0.00335693
-0.142517
-0.236816
-0.245361
-0.1651
-0.0961304
-0.0747681
-0.0765991
-0.0613403
0.00640869
-0.0149536
-0.121155
-0.151062
-0.116272
-0.0308228
0.0778198
0.219421
0.282898
0.236206
0.165405
0.057373
-0.0592041
-0.0634766
-0.0509644
-0.0476074
-0.0341797
-0.0588989
-0.0952148
-0.104065
-0.0692749
-0.0436401
0
0.0485229
0.0872803
0.108643
0.128784
0.131836
0.0946045
0.0579834
0.0143433
-0.0360107
-0.119629
-0.235291
-0.243225
-0.194092
-0.0527954
0.157166
0.239258
0.151062
0.0772095
0.0619507
0.0765991
0.0125122
-0.0579834
-0.149536
-0.288391
-0.265808
-0.231018
-0.0854492
0.24353
0.551758
0.725708
0.71991
0.451965
-0.0463867
-0.440674
-0.487366
-0.393982
-0.3302
-0.330811
-0.328369
-0.257568
-0.134583
-0.0436401
-0.00366211
0.012207
-0.0250244
-0.0515747
-0.065918
-0.0744629
-0.0814819
-0.0875854
-0.083313
-0.09552
-0.0991821
-0.038147
0.00549316
0.00305176
0.00213623
0.0106812
-0.0680542
-0.162964
-0.139771
-0.101624
-0.0537109
0.06073
0.115967
0.109558
0.0881958
0.0579834
0.0219727
0.0161743
-0.0167847
-0.0222778
0.0100708
0.020752
0.0360107
0.0494385
0.0134277
-0.0201416
-0.0930786
-0.181274
-0.168762
0.0180054
0.221863
0.296936
0.206604
0.0927734
-0.00701904
-0.267334
-0.471802
-0.380859
-0.143127
0.0701904
0.205994
0.184021
0.133057
-0.0265503
-0.122375
-0.0439453
-0.00823975
0.0198364
0.0527954
0.00213623
-0.0790405
-0.148621
-0.151672
-0.0869751
0.0161743
0.09552
0.0674438
0
-0.0219727
-0.0436401
-0.0808716
-0.098877
-0.0262451
0.13855
0.25177
0.275574
0.215454
0.0430298
-0.0500488
-0.0576782
-0.0201416
0.00427246
-0.0332642
-0.110779
-0.137939
-0.0750732
0.00457764
0.0457764
0.0271606
0.0378418
0.0622559
0.122375
0.194702
0.181885
0.126648
0.0662231
0.000610352
-0.0881958
-0.0820923
0.0271606
0.0997925
0.0744629
0.0201416
-0.0119019
0.0140381
-0.00152588
-0.0811768
-0.144348
-0.174255
-0.107422
0.010376
0.102539
0.12207
0.108948
-0.0100708
-0.15564
-0.124512
-0.027771
0.0924683
0.085144
0.000305176
0.00762939
0.0985718
0.143738
0.137634
0.196228
0.324402
0.404663
0.360107
0.197449
0.0418091
-0.0634766
-0.13855
-0.185852
-0.169983
-0.137024
-0.151062
-0.151672
-0.162659
-0.214539
-0.213623
-0.166626
-0.130005
-0.142822
-0.138855
-0.140991
-0.09552
0.0378418
0.162354
0.188904
0.179138
0.150452
0.158081
0.191345
0.173035
0.14801
0.0927734
-0.0524902
-0.164795
-0.189819
-0.22644
-0.322876
-0.34668
-0.22522
-0.0280762
0.155945
0.283813
0.379639
0.426941
0.308838
0.0921631
-0.115051
-0.227661
-0.196838
-0.0961304
0.00152588
-0.0134277
-0.0839233
-0.0985718
-0.0546265
0.0421143
0.110168
0.0967407
0.0167847
-0.0247192
-0.0177002
0.0512695
0.137329
0.15564
0.0570679
-0.0491333
-0.112915
-0.115662
-0.136108
-0.117798
-0.0662231
0.00671387
0.0210571
0.00976562
0.0799561
0.0793457
-0.0692749
-0.192566
-0.157471
0.000915527
0.191345
0.345764
0.369873
0.239258
0.0527954
-0.0524902
-0.160522
-0.169067
-0.0466919
-0.010376
-0.0738525
-0.0509644
0.0857544
0.184021
0.169983
0.150146
0.0875854
-0.0698853
-0.227356
-0.258789
-0.162659
-0.0219727
0.11261
0.13855
0.0842285
0.0668335
0.109863
0.158691
0.143127
0.0912476
0.085144
0.136108
0.19043
0.180664
0.0869751
-0.0817871
-0.296631
-0.40741
-0.333557
-0.14801
-0.0177002
0.0845337
0.13916
0.182495
0.194702
0.127869
0.0543213
0.0259399
0.0396729
0.0524902
0.0900269
0.152588
0.186462
0.178528
0.195312
0.205994
0.186462
0.179138
0.202332
0.151672
0.111694
0.00701904
-0.152893
-0.297852
-0.314026
-0.194702
-0.065918
-0.00915527
0.0177002
0.0582886
0.0750732
0.00732422
-0.022583
0.0421143
0.135803
0.285645
0.505676
0.673523
0.695801
0.666809
0.500488
0.135193
-0.278015
-0.490723
-0.516663
-0.422668
-0.364685
-0.300903
-0.221863
-0.101318
-0.0146484
0.0326538
0.0820923
0.0540161
0.0247192
0.0268555
0.0238037
-0.0100708
0
0.0509644
0.211487
0.388184
0.446472
0.407715
0.324402
0.140076
-0.0830078
-0.195007
-0.201416
-0.193787
-0.254517
-0.3125
-0.293274
-0.184021
-0.100403
0.0204468
0.0942993
0.149536
0.132141
0.107727
0.0997925
0.0683594
0.0366211
0.0512695
0.10376
0.158386
0.25238
0.285645
0.218506
0.170288
0.161438
0.127869
0.0753784
0.00427246
-0.0747681
-0.0311279
0.0857544
0.0973511
0.112915
0.160522
0.169373
0.146179
0.185547
0.274048
0.342712
0.306702
0.186462
0.032959
-0.132141
-0.195618
-0.0949097
-0.0183105
-0.0686646
-0.0924683
-0.0613403
0.0457764
0.105896
0.0741577
0.085144
0.085144
0.0479126
0.0854492
0.15564
0.227661
0.363464
0.391541
0.231628
0.0228882
-0.22583
-0.354614
-0.266418
-0.13031
-0.0125122
0.106201
0.173035
0.112915
-0.0537109
-0.182495
-0.184937
-0.101624
-0.0268555
0.0332642
0.0799561
0.123596
0.0784302
-0.0228882
-0.0769043
-0.0271606
0.0772095
0.221558
0.304871
0.264587
0.085144
-0.0436401
-0.0772095
-0.0234985
0.0405884
0.0552368
0.0378418
0.0167847
0.00549316
0.00701904
0.0335693
0.0350952
0.0289917
0.0662231
0.0289917
-0.017395
-0.055542
-0.0634766
-0.0680542
-0.0189209
0.0332642
0.0540161
0.0408936
0.00701904
-0.0360107
0.0253296
0.171509
0.318909
0.338135
0.295715
0.176086
0.0973511
0.108948
0.106812
0.0204468
-0.0976562
-0.155334
-0.185852
-0.213013
-0.222778
-0.179749
-0.0967407
-0.0561523
0.00793457
0.0933838
0.169983
0.126343
0.00366211
-0.0796509
-0.0540161
0.0112915
0.0332642
0.0460815
0.0692749
0.0814819
0.0598145
-0.0756836
-0.273743
-0.392456
-0.365295
-0.219421
-0.121155
-0.0378418
0.0778198
0.219727
0.233154
0.185242
0.106812
-0.0131226
-0.0942993
-0.100708
-0.0918579
-0.0546265
0.0262451
0.129089
0.149231
0.085144
0.0872803
0.12146
0.188904
0.269165
0.279846
0.150146
0.0717163
0.0997925
0.106506
0.0796509
0.0524902
0.0405884
0.0375366
0.0668335
0.0189209
-0.166626
-0.325623
-0.328064
-0.244751
-0.189209
-0.194092
-0.186462
-0.205994
-0.226746
-0.163269
-0.114746
-0.0689697
0.0161743
0.10437
0.145874
0.112305
0.0442505
-0.0234985
-0.0149536
0.125732
0.26886
0.274658
0.215759
0.0906372
-0.0521851
-0.123901
-0.178833
-0.183716
-0.135498
-0.180054
-0.174866
-0.0393677
0.0115967
-0.0686646
-0.0247192
0.101013
0.126953
0.124512
0.090332
0.0949097
0.078125
-0.050354
-0.108948
-0.0436401
0.0308228
0.0466919
0.0350952
-0.0106812
-0.0543213
-0.0427246
-0.017395
0.0741577
0.0646973
0.0402832
-0.0161743
-0.0723267
-0.0930786
-0.136108
-0.198364
-0.168457
-0.109863
-0.140076
-0.165405
-0.109558
0.00701904
0.0827026
0.118713
0.128174
0.114441
0.140381
0.198059
0.272827
0.250854
0.163879
0.159912
0.143433
0.100403
0.0836182
-0.0338745
-0.203247
-0.246277
-0.193481
-0.144043
-0.1297
-0.0927734
0.00427246
0.00579834
-0.0863647
-0.126038
-0.0918579
0.0161743
0.10376
0.146484
0.255127
0.391235
0.457458
0.378418
0.210266
0.0973511
0.00579834
-0.102539
-0.250244
-0.368958
-0.480957
-0.575867
-0.570984
-0.353699
-0.093689
-0.00396729
0
0.0216675
0.055542
0.0604248
0.0460815
0.0256348
-0.03479
-0.0839233
-0.0836182
-0.0238037
0.0750732
0.201111
0.308228
0.395508
0.429993
0.35614
0.224304
0.0509644
-0.169678
-0.324097
-0.355835
-0.30426
-0.240784
-0.163269
-0.0927734
-0.0323486
-0.00610352
0.0427246
0.093689
0.0582886
-0.0552368
-0.129089
-0.0808716
-0.0149536
0.0418091
0.0964355
0.159302
0.157471
0.151672
0.144958
0.119324
0.0784302
-0.00610352
-0.135193
-0.176086
-0.127258
-0.115356
-0.174866
-0.212708
-0.178528
-0.155945
-0.131531
-0.10498
-0.0720215
-0.039978
-0.0149536
0.0738525
0.142822
0.1297
0.142212
0.171814
0.152588
0.0778198
0.0650024
-0.0201416
-0.177002
-0.219727
-0.127869
-0.0564575
-0.0244141
0.00366211
0.0228882
0.0341797
0.0683594
0.155945
0.195007
0.199585
0.175781
0.0836182
-0.071106
-0.164795
-0.0897217
0.0518799
0.057373
0.020752
0.0256348
0.0259399
-0.0497437
-0.113831
-0.113525
-0.0613403
0.0320435
0.0915527
0.113525
0.125732
0.0411987
-0.0762939
-0.105286
0.00518799
0.0167847
-0.0335693
0.00762939
0.154419
0.175476
0.134583
0.100098
-0.0424194
-0.260315
-0.446472
-0.548096
-0.549622
-0.39093
-0.179443
0.0164795
0.116882
0.143433
0.207825
0.244141
0.311279
0.280151
0.214539
0.116882
-0.0222778
-0.169067
-0.289917
-0.386658
-0.377502
-0.318604
-0.288696
-0.210876
-0.0900269
0.0201416
0.0640869
0.0119019
-0.015564
0.0100708
0.00579834
0.0131226
0.0595093
0.0482178
-0.00793457
-0.0686646
-0.0689697
-0.0930786
-0.149536
-0.126343
-0.0216675
0.131836
0.237427
0.219727
0.205994
0.22644
0.227356
0.17395
0.127258
0.106506
0.0149536
-0.0708008
-0.107727
-0.0942993
-0.0796509
-0.00274658
0.114746
0.136414
0.0994873
0.0415039
0.00488281
-0.0360107
-0.0558472
-0.0320435
-0.0402832
-0.0720215
-0.085144
-0.0704956
-0.0881958
-0.072937
-0.0265503
-0.038147
-0.0521851
-0.0881958
-0.0537109
0.0640869
0.215759
0.297852
0.295105
0.0744629
-0.117188
-0.144043
-0.279541
-0.39917
-0.386353
-0.210876
-0.062561
0.00183105
0.039978
0.0704956
0.0839233
0.057373
0.0360107
0.0415039
0.00274658
-0.0469971
-0.0161743
0.0500488
0.0454712
-0.0442505
-0.0582886
0.0473022
0.057373
-0.0204468
-0.0778198
-0.0558472
-0.0183105
-0.00793457
-0.0601196
-0.119934
-0.154419
-0.154114
-0.210876
-0.187073
-0.0372314
0.0430298
0.0180054
-0.00274658
0.00946045
0.00427246
-0.00579834
-0.0320435
-0.00701904
0.0634766
0.0994873
0.118408
0.0491333
-0.0415039
-0.0344849
-0.00915527
0.0259399
0.00274658
-0.0765991
-0.0869751
-0.039978
0.0100708
-0.0158691
0
0.0360107
0.0628662
0.0872803
0.0784302
0.0146484
-0.0274658
-0.0119019
-0.00152588
0.0564575
0.16571
0.235596
0.250854
0.271301
0.301819
0.185242
-0.12207
-0.30304
-0.191956
-0.0878906
-0.0622559
0.0180054
0.0799561
-0.0881958
-0.232544
-0.227966
-0.167542
-0.0811768
0.0363159
0.0933838
0.130005
0.122681
0.103149
0.0650024
0.0213623
-0.0369263
-0.0793457
0.0595093
0.286255
0.414124
0.4776
0.53009
0.424194
0.251465
-0.0366211
-0.323792
-0.386963
-0.365601
-0.335388
-0.368958
-0.418701
-0.495605
-0.384216
-0.137024
-0.0088501
0.0372314
0.0634766
0.017395
-0.160217
-0.307617
-0.283203
-0.138245
0.032959
0.143738
0.187988
0.183105
0.171204
0.176697
0.194397
0.168152
0.152283
0.184021
0.163269
0.176392
0.291443
0.348511
0.260925
0.122986
-0.0100708
-0.0796509
-0.050354
0.0115967
-0.115356
-0.235901
-0.338135
-0.415955
-0.392761
-0.302124
-0.252686
-0.158386
0.0665283
0.220032
0.217896
0.163879
0.0558472
-0.0784302
-0.0839233
-0.0415039
-0.0149536
0.0521851
0.121155
0.133972
0.0875854
-0.0436401
-0.122986
-0.133362
-0.126038
-0.133972
-0.0973511
-0.0479126
0.0192261
0.0515747
0.165405
0.245056
0.309143
0.297241
0.203552
0.111084
0.0668335
0.0570679
-0.0146484
-0.00579834
0.0308228
0.0808716
0.0796509
0.0140381
-0.043335
-0.0686646
-0.0662231
-0.0756836
-0.0588989
-0.00671387
-0.0274658
-0.0540161
-0.0680542
-0.0494385
-0.0683594
-0.0479126
0.0402832
0.1828
0.291748
0.239258
0.0588989
-0.209045
-0.297852
-0.239258
-0.0646973
0.11322
0.19165
0.115967
-0.0109863
-0.0845337
-0.135803
-0.140076
-0.10376
-0.101929
-0.119629
-0.120239
-0.067749
0.0466919
0.0463867
-0.180664
-0.283508
-0.0909424
0.0912476
0.230408
0.348816
0.516052
0.6073
0.614319
0.568848
0.424805
0.159607
-0.125732
-0.181274
-0.119934
-0.0479126
0.00762939
0.0112915
-0.133362
-0.148621
-0.153503
-0.426941
-0.6604
-0.698242
-0.534058
-0.292053
-0.0982666
0.0732422
0.145569
0.0570679
-0.109863
-0.0900269
0.0610352
0.13855
0.142517
0.116272
0.163574
0.249329
0.395203
0.4953
0.453186
0.304871
0.119324
-0.043335
-0.111084
-0.159302
-0.264282
-0.342712
-0.298462
-0.153503
0.0521851
0.113831
0.103455
0.0967407
0.0408936
0.0204468
-0.0531006
-0.136414
-0.191345
-0.209961
-0.187683
-0.14801
-0.12146
-0.0564575
0.0457764
0.132141
0.198669
0.23407
0.151367
0.0509644
-0.017395
-0.0418091
0.0369263
0.0909424
0.0619507
-0.0143433
-0.0668335
-0.0112915
0.120239
0.162048
0.168152
0.119019
0.0204468
-0.045166
0.0408936
0.122681
0.152588
0.196228
0.221558
0.0268555
-0.213318
-0.271606
-0.27832
-0.227356
-0.177917
-0.0704956
-0.0305176
-0.0848389
-0.142212
-0.115662
-0.0982666
-0.0341797
0.0280762
0.0576782
-0.0186157
-0.0817871
-0.0662231
0.0140381
0.124817
0.224304
0.32196
0.409241
0.455933
0.429688
0.320435
0.141602
-0.10437
-0.26947
-0.300598
-0.34668
-0.376892
-0.403748
-0.40863
-0.32135
-0.167236
-0.0247192
0.100403
0.15564
0.129395
0.0695801
-0.0183105
-0.0915527
-0.0582886
0.0582886
0.280762
0.402222
0.363464
0.0921631
-0.219116
-0.378723
-0.307922
-0.100098
0.0741577
0.106506
0.0485229
-0.0244141
-0.142517
-0.201111
-0.201416
-0.227966
-0.191956
-0.0680542
0.0366211
0.184326
0.342712
0.41687
0.478821
0.412903
0.211792
0.065918
0.0674438
0.0799561
0.0534058
0.0125122
-0.0585938
-0.071106
0.0759888
0.209045
0.293884
0.306396
0.162964
-0.0543213
-0.170288
-0.215149
-0.128784
-0.00701904
0.0302124
0.0631714
0.0662231
-0.0994873
-0.232239
-0.168457
-0.0973511
-0.088501
-0.140076
-0.167542
-0.135193
-0.132751
-0.119324
-0.180359
-0.325928
-0.407104
-0.384827
-0.212097
-0.0469971
0.067749
0.0100708
-0.140686
-0.300293
-0.293884
-0.227051
-0.0692749
0.195007
0.369263
0.359497
0.26825
0.220337
0.133057
0.0662231
0.114136
0.137939
0.179749
0.202332
0.184326
0.172729
0.141602
0.108337
0.0891113
0.154419
0.200806
0.210876
0.139771
0.0115967
0.015564
0.071106
0.147705
0.159607
0.116882
0.0326538
-0.0738525
-0.250549
-0.257263
-0.174255
-0.0701904
0.00762939
0.0744629
0.0888062
0.0378418
-0.0466919
-0.0152588
0.204163
0.36377
0.349121
0.212402
-0.227661
-0.707397
-0.837708
-0.626221
-0.288086
-0.0588989
-0.00671387
0.0286865
0.136414
0.141907
0.0717163
0.0100708
0.0228882
-0.027771
-0.101318
-0.101013
-0.00396729
0.104065
0.0775146
-0.0561523
-0.173035
-0.100708
0.00366211
0.0265503
-0.0320435
-0.017395
0.135803
0.329285
0.465698
0.531006
0.430603
0.236206
0.0250244
-0.13031
-0.22583
-0.263062
-0.233459
-0.103455
0.00976562
0.0784302
0.148926
0.136414
0.0598145
-0.00274658
-0.00732422
-0.0280762
-0.0613403
-0.0704956
-0.0491333
-0.0189209
-0.015564
-0.0592041
-0.039978
0.0256348
0.0817871
0.0720215
0.105896
0.242615
0.299377
0.334473
0.32959
0.132141
-0.14801
-0.279541
-0.398254
-0.490417
-0.325928
-0.0802612
0.0137329
0.00488281
0.0125122
0.0494385
0.0436401
0.0012207
0.0131226
0.0247192
0.0192261
-0.106201
-0.30304
-0.456848
-0.397339
-0.174866
0.0588989
0.195007
0.205994
0.127869
0.0756836
0.106506
0.12207
0.0357056
-0.113525
-0.18158
-0.133667
-0.0979614
-0.149231
-0.148621
-0.118713
-0.0744629
-0.0518799
-0.0762939
-0.0274658
0.0549316
0.107117
0.0875854
0.0994873
0.151672
0.207825
0.241394
0.22644
0.115051
-0.010376
-0.0680542
-0.132751
-0.220947
-0.190735
-0.118103
-0.0741577
-0.0167847
0.0524902
0.065918
0.0164795
-0.00488281
-0.0299072
-0.0164795
0.0149536
0.109558
0.197754
0.202942
0.135193
0.0442505
0.0363159
0.151672
0.349426
0.415955
0.339661
0.133667
-0.0604248
-0.21759
-0.19165
-0.0180054
0.115662
0.135803
0.0756836
0.0469971
0.00213623
-0.062561
-0.150452
-0.138245
-0.110474
-0.0939941
-0.186462
-0.262146
-0.299072
-0.234375
-0.129395
-0.0253296
0.0869751
0.108337
-0.0509644
-0.159302
-0.133362
-0.118713
-0.0796509
-0.057373
-0.0445557
-0.0143433
0.123901
0.309753
0.307617
0.249939
0.169983
0.0619507
-0.00244141
-0.0558472
-0.152588
-0.171509
-0.142212
-0.0759888
-0.0723267
-0.107117
-0.14801
-0.167236
-0.132446
-0.0915527
-0.0506592
0.0299072
0.142822
0.215759
0.252686
0.26001
0.225525
0.190125
0.157471
0.118408
0.00823975
-0.0912476
-0.0933838
-0.0720215
-0.0448608
-0.00518799
0.0219727
0.0128174
-0.0289917
-0.0610352
-0.0820923
-0.0738525
-0.0576782
-0.00244141
0.0268555
0.0256348
0.00488281
-0.0616455
-0.0845337
0.027771
0.195007
0.369873
0.432434
0.409851
0.309143
0.266418
0.37262
0.423584
0.411987
0.206909
-0.0570679
-0.215454
-0.274658
-0.210571
-0.0512695
-0.0195312
-0.184326
-0.296326
-0.358276
-0.418701
-0.343628
-0.187378
-0.010376
0.144348
0.287781
0.431824
0.386658
0.153198
-0.12146
-0.301819
-0.367126
-0.32196
-0.1651
0.050354
0.0863647
-0.0402832
-0.0958252
-0.0567627
0.020752
0.0595093
0.00762939
-0.0708008
-0.153198
-0.146484
-0.137329
-0.111389
-0.0909424
-0.0765991
-0.0604248
-0.0576782
-0.0216675
0.0323486
0.0961304
0.0946045
0.129089
0.245361
0.305481
0.265198
0.192566
0.115051
-0.0170898
-0.0518799
-0.0875854
-0.103149
-0.107117
-0.13092
-0.106506
-0.0283813
0.00244141
0.0146484
0.0448608
0.0210571
-0.0982666
-0.10376
-0.0408936
-0.0283813
-0.00579834
0.0228882
0.0747681
0.0915527
0.0723267
0.0717163
0.0906372
0.102844
0.11322
0.148315
0.18158
0.198975
0.193787
0.177917
0.090332
-0.0341797
-0.0820923
-0.14801
-0.193787
-0.173645
-0.0704956
0.039978
0.223083
0.366821
0.285645
0.0927734
0.027771
-0.0839233
-0.273132
-0.36499
-0.352783
-0.279541
-0.0790405
0.123901
0.215149
0.220337
0.154724
0.0515747
-0.0387573
-0.0985718
-0.0827026
-0.0482178
0.0637817
0.196228
0.274963
0.183411
0.0643921
-0.057373
-0.178833
-0.171204
-0.176086
-0.230103
-0.23407
-0.167542
-0.0827026
-0.0604248
-0.038147
0.00305176
0.015564
0.0265503
0.0213623
-0.00457764
-0.0512695
-0.0741577
-0.0485229
-0.0186157
0.0201416
0.0134277
-0.0109863
-0.0320435
0.00152588
0.0772095
0.166931
0.183716
0.143433
0.0582886
-0.0509644
-0.145264
-0.264587
-0.344849
-0.361023
-0.332336
-0.238037
-0.104065
0.111694
0.290833
0.389404
0.450134
0.395813
0.194092
0.00213623
-0.0524902
-0.0534058
-0.0149536
0.0115967
0.043335
0.00946045
0.00213623
0.0170898
0.0384521
0.085144
0.178833
0.25238
0.345764
0.371399
0.173035
-0.00915527
-0.0930786
-0.123901
-0.0817871
0.00488281
0.0537109
0.146179
0.196228
0.145874
0.00946045
-0.0881958
-0.134277
-0.0643921
0.122986
0.219421
0.19928
0.0634766
-0.098877
-0.246887
-0.357056
-0.461731
-0.503845
-0.411377
-0.231323
-0.0540161
0.0952148
0.147095
0.14679
0.217896
0.27832
0.133972
-0.0732422
-0.161438
-0.125427
-0.148315
-0.115662
-0.0247192
0.00915527
0.0408936
0.0436401
0.0189209
-0.0125122
0.0561523
0.193787
0.26001
0.254211
0.201416
0.12085
0.0125122
-0.0958252
-0.11261
-0.116882
-0.0906372
-0.0772095
-0.0601196
-0.0344849
0.0259399
0.0881958
0.114136
0.111084
0.0946045
0.119019
0.168457
0.198364
0.236206
0.282898
0.209045
0.0717163
-0.085144
-0.244446
-0.295105
-0.248718
-0.171509
-0.102539
0.0311279
0.154724
0.266418
0.332642
0.25177
0.012207
-0.209656
-0.238342
-0.0415039
0.178223
0.169373
0.140076
0.088501
-0.0341797
-0.124512
-0.188293
-0.246887
-0.337219
-0.389404
-0.299072
-0.0808716
0.050354
0.124817
0.239868
0.313721
0.320129
0.361023
0.32074
0.203247
-0.00274658
-0.128784
-0.204163
-0.259094
-0.199585
-0.130615
-0.0415039
0.00518799
0.039978
0.0332642
0.00366211
-0.0390625
-0.0518799
-0.0537109
-0.0839233
-0.0509644
0.0302124
0.0375366
-0.0338745
-0.115051
-0.133057
-0.152283
-0.116882
-0.065918
-0.0546265
-0.0137329
0.0717163
0.196228
0.265808
0.203552
0.158386
0.189819
0.253601
0.354309
0.361938
0.273438
0.16571
0.0271606
-0.124207
-0.20813
-0.260925
-0.326843
-0.247192
0.00701904
0.357971
0.587158
0.485229
0.191956
-0.0759888
-0.271606
-0.260315
-0.166626
-0.123291
-0.17395
-0.256958
-0.339661
-0.395203
-0.310364
-0.127258
0.101318
0.231934
0.193787
0.0845337
-0.00366211
-0.0820923
-0.123596
-0.0289917
0.0570679
0.039978
0.00183105
-0.0741577
-0.139771
-0.119019
-0.0839233
-0.0418091
0.0415039
0.0802612
0.0952148
0.0997925
0.100403
0.0820923
0.142212
0.209045
0.296021
0.370789
0.336609
0.243225
0.153198
0.141296
0.067749
-0.090332
-0.150146
-0.175476
-0.244751
-0.307312
-0.287781
-0.180664
-0.0817871
-0.0497437
-0.0866699
-0.107117
-0.0784302
-0.0210571
0.0326538
0.0888062
0.16449
0.130005
0.0411987
-0.0479126
-0.0970459
-0.0924683
-0.0250244
0.0653076
0.108643
-0.0210571
-0.154114
-0.167542
-0.0823975
-0.00793457
0.0201416
0.0280762
0.0186157
0.0177002
-0.055542
-0.151367
-0.0332642
0.0387573
0.0643921
0.0839233
0.0485229
-0.0149536
-0.0601196
-0.0125122
0.039978
0.0970459
0.132751
0.141907
0.111084
0.105286
0.114136
0.158081
0.176392
0.125122
-0.0704956
-0.262756
-0.293274
-0.246582
-0.180664
-0.0927734
0.0695801
0.340576
0.502014
0.534058
0.352478
0.150146
-0.0411987
-0.124817
-0.216675
-0.283508
-0.312195
-0.259399
-0.226135
-0.263977
-0.247192
-0.252075
-0.213013
-0.159912
-0.119629
-0.100708
0.0109863
0.205383
0.306396
0.361328
0.359802
0.20752
0.0619507
-0.0161743
-0.11322
-0.162659
-0.0576782
0.0558472
0.0915527
0.0167847
-0.107727
-0.166321
-0.205383
-0.251465
-0.258484
-0.207825
-0.117493
-0.0216675
0.00671387
0.000915527
0.0387573
0.0872803
0.14679
0.124207
0.043335
-0.0689697
-0.144348
-0.15625
-0.147705
-0.071106
-0.000915527
0.0765991
0.135803
0.0909424
0.0216675
-0.0311279
-0.0973511
-0.0592041
0.0598145
0.135803
0.159912
0.103455
-0.0164795
-0.050354
-0.0927734
-0.183411
-0.196533
-0.147095
-0.0302124
0.163269
0.315247
0.354309
0.286255
0.141602
-0.0479126
-0.176392
-0.147095
0.0146484
0.0961304
0.112915
0.141296
0.171509
0.189514
0.242004
0.238953
0.19928
0.127258
0.0643921
0.101929
0.106812
0.0466919
-0.107117
-0.166931
-0.140686
-0.177612
-0.215454
-0.317383
-0.40741
-0.324707
-0.106506
0.143738
0.323181
0.422668
0.370789
0.177002
-0.0228882
-0.188599
-0.333252
-0.460815
-0.464172
-0.301514
-0.0646973
0.139771
0.111389
0.0482178
0.108948
0.0680542
-0.0326538
-0.0234985
0.0289917
0.0588989
0.196228
0.36377
0.377197
0.302124
0.108337
-0.227051
-0.350647
-0.235901
-0.140991
-0.160522
-0.167236
-0.090332
-0.0253296
-0.0112915
0.050354
-0.0170898
-0.110168
-0.169678
-0.192871
-0.125427
-0.0979614
-0.129089
-0.12085
-0.0186157
0.0180054
0.00823975
-0.0384521
-0.125427
-0.143433
-0.117493
-0.0872803
-0.00915527
0.0744629
0.116272
0.145874
0.218201
0.219727
0.177612
0.0332642
-0.140991
-0.221863
-0.157166
-0.0125122
0.085144
0.0613403
-0.0695801
-0.0949097
-0.00152588
0.140381
0.222473
0.197144
0.0830078
0.000305176
-0.0973511
-0.17395
-0.144653
-0.119934
-0.0765991
0.0531006
0.197754
0.32074
0.306091
0.21759
0.12207
0.027771
-0.045166
-0.0646973
0.0497437
0.205383
0.303345
0.319519
0.269775
0.144958
0.179138
0.299377
0.256348
0.0784302
-0.147095
-0.274353
-0.378418
-0.396729
-0.417175
-0.322266
-0.195923
-0.188293
-0.292358
-0.427551
-0.394592
-0.236816
-0.0671387
0.072937
0.185242
0.22644
0.17334
0.1474
0.112305
0.107117
0.0811768
-0.00610352
-0.127258
-0.200195
-0.138855
0.0802612
0.231628
0.334778
0.43335
0.490723
0.42511
0.260315
-0.0256348
-0.140686
-0.195007
-0.298462
-0.367737
-0.343628
-0.302734
-0.202637
-0.0671387
-0.00152588
0.0390625
-0.0228882
-0.149231
-0.185852
-0.0579834
0.0668335
0.16571
0.242004
0.225525
0.16571
0.154419
0.175476
0.193176
0.162354
0.0521851
-0.0286865
-0.0637817
-0.0863647
-0.06073
-0.0271606
-0.088501
-0.0610352
0.0216675
-0.0476074
-0.122986
-0.104675
0.0485229
0.303955
0.46814
0.462646
0.264282
-0.03479
-0.265503
-0.223694
-0.172424
-0.158386
-0.140991
-0.128479
-0.0836182
-0.0616455
0.0262451
0.0915527
0.0790405
0.0274658
-0.0616455
-0.141907
-0.0985718
0.0421143
0.138855
0.205383
0.275269
0.261536
0.223083
0.301514
0.299988
0.0540161
-0.218811
-0.361938
-0.351562
-0.241394
-0.133972
-0.0582886
0.0289917
0.0900269
0.119324
0.136414
0.0537109
-0.0601196
-0.0665283
0.00518799
0.114136
0.196533
0.291748
0.299377
0.160522
0.0262451
-0.0839233
-0.0817871
-0.210571
-0.395813
-0.354309
-0.218201
-0.107727
-0.050354
-0.0595093
-0.0656128
0.0253296
0.0991821
0.0323486
0
0
-0.0100708
-0.0518799
-0.108032
-0.180969
-0.129089
-0.0253296
0.0466919
0.115967
0.194702
0.226746
0.219421
0.0753784
-0.0814819
-0.0582886
-0.0100708
-0.098877
-0.102234
0.0579834
0.193787
0.284119
0.244446
0.0378418
-0.0900269
-0.131836
-0.123901
-0.107727
-0.0784302
-0.078125
-0.0888062
-0.145569
-0.158691
-0.131836
-0.0827026
0.0411987
0.145264
0.137634
0.0857544
0.0717163
0.107117
0.119019
0.0708008
0.0180054
0.0238037
-0.00579834
-0.0210571
-0.00396729
0.090332
0.142212
0.132141
0.104675
0.209045
0.345764
0.300598
0.274048
0.221558
0.0521851
-0.160522
-0.166321
-0.0897217
-0.0830078
-0.145874
-0.297852
-0.453186
-0.495605
-0.389709
-0.231323
-0.0326538
0.179138
0.424805
0.606079
0.447388
0.153503
-0.0756836
-0.185852
-0.0845337
-0.0442505
-0.093689
-0.106201
-0.114136
-0.106506
-0.105591
-0.110779
-0.093689
-0.0698853
-0.0588989
-0.118408
-0.123596
-0.0708008
0.017395
0.0808716
0.10437
0.0933838
0.107117
0.0906372
0.00701904
-0.0592041
0.017395
0.141602
0.214539
0.352173
0.471191
0.37384
0.0839233
-0.118408
-0.217896
-0.224304
-0.219116
-0.262756
-0.249939
-0.229187
-0.198364
-0.0177002
0.18219
0.278931
0.364685
0.359192
0.270996
0.188599
0.0970459
-0.0759888
-0.176086
-0.209045
-0.204773
-0.1474
-0.108337
-0.172424
-0.266418
-0.220947
-0.100403
-0.0265503
0.0296021
0.000915527
-0.141602
-0.168762
-0.00793457
0.149536
0.252991
0.292053
0.34668
0.299988
0.093689
-0.0537109
-0.169983
-0.243835
-0.26123
-0.214844
-0.160217
-0.0827026
-0.0518799
-0.0262451
0.00427246
0.0808716
0.160217
0.175171
0.167847
0.185852
0.19104
0.220032
0.188293
0.0817871
0.0158691
-0.0421143
-0.0402832
0.0125122
0.0289917
0.0753784
0.1651
0.213318
0.195618
0.0918579
-0.0366211
-0.124817
-0.153198
-0.0997925
-0.0436401
0.00366211
-0.00274658
-0.103455
-0.133057
-0.116882
-0.0796509
-0.0576782
-0.0854492
-0.105286
-0.158997
-0.078125
-0.0265503
0.0360107
0.0509644
0.0482178
0.0717163
0.102844
0.102844
0.0619507
0.0265503
0.0640869
0.158081
0.271912
0.313721
0.252686
0.133362
0.071106
0.170898
0.370789
0.487061
0.428772
0.149536
-0.0128174
-0.149536
-0.247803
-0.297852
-0.250854
-0.214233
-0.20874
-0.219727
-0.203552
-0.116577
-0.0549316
-0.0323486
-0.0332642
-0.00915527
0.0595093
0.165405
0.258789
0.22583
0.19989
0.17334
0.0759888
-0.0317383
-0.0924683
-0.215759
-0.335693
-0.288696
-0.139465
-0.0305176
0.0518799
0.158997
0.20874
0.137939
-0.0820923
-0.207825
-0.260925
-0.239563
-0.0436401
0.16571
0.177002
0.0482178
-0.105286
-0.246582
-0.322876
-0.333252
-0.231934
-0.158081
-0.100098
-0.0186157
0.106506
0.104675
0.0418091
0.0189209
0.039978
0.0967407
0.104675
0.108643
0.148926
0.141296
0.126648
0.155945
0.266418
0.345154
0.288696
0.148621
0.038147
0.00274658
-0.0228882
-0.0177002
0.0793457
0.062561
-0.0378418
-0.0958252
-0.0521851
-0.00732422
0
-0.0250244
-0.0778198
-0.112915
-0.118713
-0.0317383
0.150757
0.350952
0.506897
0.56427
0.353088
0.0119019
-0.198059
-0.239868
-0.270691
-0.177002
-0.00762939
0.172424
0.291443
0.220337
0.0448608
-0.0640869
-0.0927734
-0.0643921
-0.0750732
-0.166321
-0.272217
-0.293579
-0.247498
-0.209045
-0.171204
-0.110474
-0.0576782
-0.0967407
-0.038147
0.0784302
0.0497437
0.055542
0.10437
0.13092
0.0985718
0.0778198
0.0595093
-0.00701904
-0.0244141
-0.0375366
-0.0582886
-0.039978
0.00305176
0.0341797
-0.00244141
-0.0561523
-0.166931
-0.207825
-0.169678
-0.072937
-0.00488281
-0.00488281
-0.0387573
-0.0680542
-0.0784302
0.108948
0.284729
0.273743
0.211792
0.122375
0.00518799
-0.0613403
-0.132141
-0.207214
-0.212708
-0.160217
-0.112
-0.0842285
-0.0643921
-0.0552368
0.0128174
0.134277
0.270081
0.366516
0.305481
0.133667
0.020752
-0.071106
-0.105286
-0.0515747
-0.0210571
0.00610352
0.138855
0.307922
0.486755
0.59967
0.497437
0.199585
-0.0418091
-0.231018
-0.377808
-0.430298
-0.386963
-0.245667
-0.0341797
0.180359
0.287476
0.249329
0.0305176
-0.166016
-0.236206
-0.262146
-0.232849
-0.184326
-0.200806
-0.255432
-0.265198
-0.271301
-0.180054
-0.0369263
0.0100708
0.0415039
0.0396729
0.0363159
0.0476074
0.0485229
0.0216675
-0.0338745
-0.0735474
-0.0982666
-0.0534058
-0.0869751
-0.0930786
-0.0979614
-0.0628662
0.015564
0.0714111
0.0656128
0.0622559
0.108948
0.140076
0.142517
0.128174
0.126648
0.0875854
0.0402832
-0.0210571
-0.057373
-0.0912476
-0.141296
-0.153198
-0.0811768
-0.00518799
0.0686646
0.0949097
0.177917
0.229492
0.180359
0.0796509
0.0491333
0.0384521
0.00854492
-0.0695801
-0.124817
-0.12146
-0.112915
-0.179443
-0.259094
-0.308838
-0.294495
-0.215149
-0.145264
-0.224915
-0.276184
-0.176086
0.0231934
0.149841
0.18219
0.149536
0.126953
0.130615
0.114136
0.124207
0.124512
0.0570679
0.00366211
0.0012207
0.0378418
0.0692749
0.0811768
0.0915527
0.108643
0.181274
0.297852
0.322266
0.222168
0.0753784
-0.0973511
-0.15686
-0.154724
-0.169067
-0.135193
-0.0250244
0.1651
0.293884
0.225525
0.134583
0.17334
0.289917
0.307617
0.286865
0.309448
0.206909
0.0402832
0.0183105
-0.0198364
-0.133972
-0.160828
-0.18158
-0.224304
-0.247498
-0.26123
-0.262756
-0.131836
-0.0204468
0.020752
0.0140381
0.015564
0.0268555
0.0457764
0.0299072
-0.0195312
-0.0332642
-0.0109863
-0.00762939
-0.0128174
-0.0482178
-0.0189209
-0.0558472
-0.0772095
-0.00640869
0.0888062
0.139465
0.153809
0.0912476
0.0164795
-0.03479
-0.0631714
-0.0518799
-0.0637817
-0.115967
-0.145264
-0.0769043
0.0418091
0.168762
0.28717
0.219116
0.15564
0.241394
0.26123
0.215454
0.0646973
-0.0656128
-0.121765
-0.0524902
0.0637817
0.18158
0.264893
0.274658
0.262146
0.247803
0.219727
0.195618
0.126648
-0.0463867
-0.188599
-0.198059
-0.0744629
-0.0158691
0.00823975
0.00701904
0.0579834
0.233154
0.405579
0.545349
0.567017
0.392456
0.101318
-0.134583
-0.230713
-0.298462
-0.320435
-0.275574
-0.254211
-0.317688
-0.292053
-0.213623
-0.129089
-0.0741577
-0.0320435
-0.0427246
-0.11322
-0.1474
-0.177917
-0.214539
-0.20752
-0.19989
-0.128479
0.0442505
0.161133
0.16449
0.0857544
0.0115967
0.0183105
0.0457764
0.0296021
-0.0241089
-0.147095
-0.299988
-0.270996
-0.121765
0.00579834
0.13855
0.212402
0.234985
0.22644
0.168762
0.101013
0.0735474
0.112
0.112305
0.0665283
0.0234985
-0.0192261
-0.067749
-0.0888062
-0.141907
-0.163879
-0.0979614
0.0088501
0.150452
0.30426
0.306702
0.16571
-0.0543213
-0.173035
-0.187683
-0.136414
-0.0408936
0.0817871
0.154724
0.165405
0.127869
0.0671387
-0.0250244
-0.0741577
-0.0726318
-0.0802612
-0.101929
-0.0857544
-0.0875854
-0.020752
0.0387573
0.00640869
-0.0354004
-0.038147
0.00488281
0.0646973
0.120544
0.0897217
-0.06073
-0.181885
-0.166931
-0.0708008
0.038147
0.140381
0.229187
0.26123
0.128479
-0.0466919
-0.0588989
0.154419
0.259705
0.148621
-0.0109863
-0.12146
-0.135803
-0.0918579
-0.0680542
-0.115967
-0.169678
-0.151672
0.00915527
0.141296
0.136108
0.093689
-0.0997925
-0.366211
-0.45105
-0.33905
-0.149841
-0.0335693
0.0613403
0.105286
0.0802612
0.03479
-0.0292969
-0.0473022
0.00640869
0.0796509
0.183716
0.194702
0.169067
0.122986
0.0283813
-0.0970459
-0.18219
-0.127258
-0.0466919
0.0387573
0.0582886
0.0183105
-0.0524902
-0.0717163
-0.142517
-0.242615
-0.297546
-0.243225
-0.0604248
0.0775146
0.0814819
0.00915527
-0.0942993
-0.1651
-0.147705
-0.130615
-0.0463867
0.107117
0.160217
0.144653
0.0106812
-0.0570679
-0.0106812
0.0567627
0.116272
0.162964
0.144348
0.135803
0.09552
-0.0439453
-0.13092
-0.158691
-0.194702
-0.221558
-0.203247
-0.178833
-0.153809
-0.0674438
-0.00366211
-0.0210571
-0.0427246
-0.0100708
0.0537109
0.0717163
0.0262451
0.00579834
-0.101013
-0.205994
-0.232544
-0.163574
-0.0894165
0.0405884
0.183411
0.187683
0.170898
0.165405
0.0946045
0
0.00244141
0.108337
0.133972
0.119934
0.118103
-0.0222778
-0.0186157
0.00946045
0.0326538
0.0732422
0.0915527
0.0946045
0.0485229
-0.0305176
-0.172729
-0.245056
-0.230408
-0.180969
-0.163269
-0.183716
-0.198975
-0.169983
-0.0765991
0.0222778
0.0888062
0.129089
0.0622559
-0.0720215
-0.166626
-0.216675
-0.227356
-0.163879
-0.0949097
-0.0186157
0.0494385
0.0427246
0.0088501
0.0518799
0.0897217
0.118408
0.18158
0.238647
0.205994
0.107117
0.0204468
0.0170898
0.0149536
0.0140381
0.027771
0.00305176
-0.0888062
-0.141907
-0.134583
-0.0924683
-0.0143433
0.0534058
0.107117
0.103455
0.0793457
0.00244141
-0.0616455
-0.100403
-0.105591
-0.0808716
0.045166
0.141907
0.237732
0.216064
0.0723267
-0.0982666
-0.194397
-0.224304
-0.156555
0.0280762
0.201721
0.195312
0.093689
-0.0320435
-0.135803
-0.23468
-0.259705
-0.238647
-0.0656128
0.215454
0.493164
0.632019
0.522766
0.300903
0.124512
-0.0402832
-0.0765991
-0.0488281
-0.110168
-0.242004
-0.349426
-0.275574
-0.0628662
0.0424194
0.0881958
0.172729
0.275574
0.309448
0.301514
0.214539
0.0973511
-0.0164795
-0.143433
-0.24231
-0.264893
-0.227051
-0.145874
-0.0732422
-0.0283813
0.0387573
0.158691
0.265503
0.25238
0.121765
-0.00152588
-0.00701904
0.0216675
-0.020752
-0.0738525
-0.0796509
-0.0515747
-0.0253296
-0.0259399
-0.120544
-0.124817
-0.119324
-0.13916
-0.178528
-0.207214
-0.184631
-0.135498
-0.03479
0.0354004
0.0384521
0.0177002
0.0271606
0.027771
-0.00762939
-0.00305176
-0.0131226
0.00732422
0.0772095
0.199585
0.287476
0.271301
0.139465
0.0778198
0.0537109
0.0149536
0.0170898
0.0592041
0.0521851
0.090332
0.235596
0.326233
0.229187
0.0720215
-0.0845337
-0.181274
-0.121765
-0.0360107
-0.00762939
-0.0930786
-0.117493
-0.110779
-0.148926
-0.204773
-0.254211
-0.249939
-0.194397
-0.150757
-0.0476074
0.0762939
0.115051
0.148926
0.125427
0.0140381
-0.0442505
-0.00518799
0.0811768
0.179749
0.223389
0.175171
0.18219
0.306091
0.391541
0.274658
0.0845337
-0.012207
-0.117493
-0.209961
-0.166321
-0.0283813
0.0640869
0.0643921
-0.0140381
-0.0845337
-0.0906372
-0.0656128
-0.0515747
-0.00823975
0.000305176
-0.0808716
-0.151367
-0.0842285
0.00335693
0.122681
0.222473
0.304871
0.325623
0.291138
0.161743
-0.015564
-0.132751
-0.143433
-0.0930786
-0.0305176
0.0204468
0.0372314
-0.027771
-0.0857544
-0.0549316
0.0189209
0.0143433
-0.0762939
-0.0744629
-0.085144
-0.118408
-0.0799561
-0.0552368
-0.0311279
-0.0189209
0.0137329
0.0521851
0.038147
-0.00183105
-0.0332642
-0.136108
-0.178528
-0.131836
0.00671387
0.0939941
0.168457
0.209351
0.166321
0.122986
0.0802612
0.0854492
0.161743
0.151062
0.0476074
0.0262451
0.0869751
0.0796509
0.0167847
-0.0424194
-0.0680542
-0.102539
-0.0991821
-0.00488281
0.00579834
-0.0900269
-0.131836
-0.0939941
-0.0119019
0.085144
0.139771
0.1474
0.137634
0.0900269
0.0473022
-0.00305176
-0.0164795
0.0561523
0.219116
0.386353
0.406189
0.297852
0.152588
-0.0802612
-0.281067
-0.297241
-0.248108
-0.211182
-0.209656
-0.151978
-0.107727
-0.0924683
-0.0942993
-0.0933838
-0.0814819
-0.0839233
-0.0817871
-0.0958252
-0.106506
-0.0863647
-0.111084
-0.163879
-0.162048
-0.122681
-0.0967407
-0.012207
0.062561
0.165405
0.268555
0.264893
0.108643
0.0540161
0.223694
0.41687
0.473328
0.48645
0.4953
0.294495
0.0360107
-0.0860596
-0.183716
-0.315857
-0.357361
-0.316162
-0.24353
-0.198975
-0.166321
-0.085144
0.0405884
0.118408
0.103455
0.0592041
0.0515747
0.0411987
-0.0466919
-0.115356
-0.0942993
-0.0704956
0.00701904
0.0704956
0.0869751
0.0601196
0.0390625
0.032959
0.0839233
0.101929
0.117493
0.167542
0.163879
0.183411
0.167847
0.0332642
-0.09552
-0.154419
-0.177002
-0.167847
-0.173645
-0.125122
-0.0527954
-0.00366211
0.0418091
0.108643
0.132446
0.203552
0.306396
0.343933
0.265808
0.100708
-0.0793457
-0.235291
-0.316467
-0.283203
-0.238342
-0.187683
-0.103455
-0.0534058
-0.0253296
0.0494385
0.108643
0.0396729
-0.0466919
-0.100098
-0.0973511
-0.0732422
-0.0323486
0.0946045
0.24292
0.348511
0.467224
0.525818
0.443115
0.207214
-0.071106
-0.245056
-0.284729
-0.256042
-0.215149
-0.171204
-0.138245
-0.115051
-0.121765
-0.137329
-0.167236
-0.166626
-0.124512
-0.0662231
0.0466919
0.10437
0.151367
0.209656
0.239563
0.287476
0.233459
0.0445557
-0.13916
-0.226135
-0.26886
-0.277405
-0.202942
-0.110168
0.0134277
0.144958
0.1828
0.132141
0.0894165
0.10376
0.0857544
0.0784302
0.0720215
0.0402832
0.0256348
-0.0363159
-0.0695801
-0.015564
0.0482178
0.106201
0.126648
0.136414
0.104065
0.0656128
-0.00396729
-0.0436401
0.0140381
0.0680542
0.11322
0.0939941
0.121155
0.138245
0.118408
0.0665283
0.00976562
-0.00244141
0.00610352
-0.0134277
-0.00488281
0.0494385
0.0778198
0.0668335
0.0744629
0.0720215
0.043335
0.0497437
-0.00915527
-0.129395
-0.176086
-0.218506
-0.231934
-0.131531
-0.0891113
-0.0671387
-0.057373
-0.0372314
-0.0161743
0.0662231
0.150452
0.267029
0.368042
0.460815
0.436707
0.266113
-0.0421143
-0.163269
-0.14679
-0.131226
-0.14679
-0.155945
-0.132751
-0.0588989
0.0271606
0.0927734
0.180054
0.209351
0.0967407
0.015564
-0.00579834
0.0244141
0.0588989
0.0866699
0.133972
0.101013
-0.0338745
-0.166626
-0.209351
-0.151062
-0.0241089
0.0595093
0.105286
0.0836182
-0.0747681
-0.13031
-0.038147
0.0296021
0.0088501
-0.0213623
-0.0698853
-0.126343
-0.0805664
-0.0402832
-0.0210571
-0.0442505
-0.0842285
-0.0442505
-0.0579834
-0.0836182
-0.113525
-0.0778198
0.0167847
0.161743
0.299377
0.441589
0.578918
0.552368
0.371399
0.220032
0.0479126
-0.187378
-0.31189
-0.189209
-0.0579834
-0.012207
-0.020752
0.0216675
0.0137329
-0.0808716
-0.183716
-0.217896
-0.175171
-0.140686
-0.0741577
-0.0375366
-0.0283813
-0.00854492
-0.0390625
-0.0985718
-0.0500488
0.0674438
0.168152
0.227966
0.19165
0.0958252
0.0863647
-0.0289917
-0.237427
-0.35675
-0.35553
-0.304871
-0.221252
-0.158691
-0.11261
-0.0576782
0.0595093
0.211182
0.305481
0.253601
0.0595093
-0.171814
-0.280457
-0.180969
-0.0112915
0.117188
0.104675
0.0387573
-0.00152588
-0.0698853
-0.214233
-0.243835
-0.195923
-0.157776
-0.105896
-0.0323486
-0.0308228
-0.0817871
-0.169373
-0.168152
-0.125732
-0.0952148
0.00457764
0.101624
0.161438
0.107727
0.123596
0.188293
0.127258
0.0701904
0.0491333
0.0427246
0.0180054
0.0396729
0.0817871
0.178528
0.242004
0.249023
0.218506
0.150757
0.0439453
-0.106812
-0.0991821
-0.0686646
-0.127258
-0.185242
-0.154114
-0.0656128
0.00854492
0.0817871
0.0793457
0.116882
0.166626
0.105591
0.0466919
0.00946045
-0.00732422
-0.121765
-0.234985
-0.191956
0.0442505
0.236511
0.424805
0.594177
0.487366
0.137634
-0.115356
-0.289307
-0.386353
-0.351257
-0.259705
-0.188904
-0.19989
-0.151978
-0.0244141
0.111694
0.228271
0.249939
0.170288
-0.0531006
-0.270386
-0.384521
-0.326843
-0.192566
-0.0527954
0.0714111
0.0997925
0.0164795
-0.115356
-0.13092
-0.0183105
0.151978
0.274658
0.247498
0.154114
0.0469971
-0.022583
0
0.0686646
0.111389
0.112
0.0506592
-0.0811768
-0.219727
-0.231323
-0.21698
-0.220947
-0.157471
-0.121765
-0.127869
-0.0665283
-0.0238037
0.0405884
0.0372314
0.0375366
-0.0869751
-0.164795
-0.13031
-0.123291
-0.105286
-0.0546265
0.00701904
0.085144
0.131531
0.0924683
-0.0146484
-0.13031
-0.167847
-0.142517
-0.0726318
0.0320435
0.0341797
0.0311279
-0.00152588
0.00213623
0.0338745
0.0338745
0.126648
0.1828
0.167542
0.154114
0.197449
0.260925
0.301208
0.296936
0.130005
-0.101929
-0.184326
-0.209045
-0.289917
-0.329895
-0.234375
-0.11261
-0.0149536
0.0790405
0.10498
0.0314331
-0.015564
0.0106812
0.114746
0.209045
0.185852
0.223083
0.277405
0.236511
0.230103
0.26947
0.263062
0.195923
0.135803
0.0180054
-0.127258
-0.229797
-0.26001
-0.157166
-0.0741577
-0.0387573
-0.0604248
-0.119324
-0.121155
-0.0582886
-0.105286
-0.13916
-0.0585938
0.00549316
0.0247192
0.00579834
0.032959
0.0778198
0.071106
0.0350952
0.0106812
-0.00579834
-0.0106812
-0.00396729
0.0408936
0.0714111
-0.0158691
-0.122681
-0.116882
-0.109863
-0.222473
-0.224915
-0.115356
0.0808716
0.16449
0.152588
0.0900269
0.0125122
-0.0149536
0.00183105
0.0714111
0.114441
0.0790405
0.0494385
0.0979614
0.128174
0.101624
0.0317383
-0.133667
-0.234985
-0.190125
-0.142212
-0.127869
-0.212708
-0.115967
0.0982666
0.305481
0.303345
0.187683
0.0213623
-0.168762
-0.215149
-0.16449
-0.161133
-0.189514
-0.173035
-0.114136
0.0161743
0.122986
0.153198
0.206604
0.130615
-0.0363159
-0.168762
-0.174561
-0.102234
-0.0137329
0.00793457
0.0289917
0.0482178
0.0363159
0.0241089
-0.0125122
-0.0650024
-0.0683594
-0.0808716
-0.117493
-0.111389
0.00610352
0.0869751
0.106201
0.103455
0.130615
0.195618
0.216675
0.231934
0.279541
0.334167
0.401306
0.431824
0.286255
0.00152588
-0.282593
-0.377808
-0.391541
-0.343933
-0.238342
-0.0985718
0.0778198
0.146179
0.0253296
-0.0811768
-0.0393677
0.0314331
0.0964355
0.0863647
-0.0158691
-0.18158
-0.296631
-0.323486
-0.277405
-0.160217
-0.050354
-0.0430298
0.0161743
0.0680542
0.0497437
0.0146484
-0.020752
-0.0131226
0.0210571
0.0131226
-0.0466919
-0.113525
-0.167542
-0.124207
0.0280762
0.151978
0.235901
0.296021
0.210266
0.0863647
-0.0128174
-0.0253296
0.00946045
0.0317383
0.0793457
0.160828
0.290833
0.32196
0.273132
0.153198
-0.0231934
-0.155334
-0.235901
-0.239258
-0.144958
-0.0747681
-0.00854492
0.0109863
-0.0375366
-0.110474
-0.0656128
-0.0198364
-0.0427246
-0.0369263
0
0.017395
-0.0265503
-0.102539
-0.146179
-0.104675
0.0915527
0.336304
0.422363
0.376892
0.273132
0.0448608
-0.0686646
-0.0283813
0.0460815
0.123291
0.211792
0.238953
0.167542
0.0534058
-0.0753784
-0.181274
-0.198059
-0.19989
-0.230713
-0.230103
-0.176392
-0.0958252
0.0247192
0.0912476
0.111389
0.0973511
0.00335693
-0.0167847
0.112305
0.309143
0.468445
0.428772
0.252075
0.0521851
-0.176392
-0.298157
-0.261536
-0.196838
-0.108032
-0.0720215
-0.0698853
-0.0991821
-0.133057
-0.230103
-0.290527
-0.2005
-0.0283813
0.137024
0.237732
0.19989
0.105286
0.00854492
-0.0784302
-0.121765
-0.137024
-0.152588
-0.109863
-0.0280762
0.0384521
0.120544
0.247192
0.340881
0.370178
0.285034
0.0634766
0.00976562
0.00946045
0.0253296
0.0952148
0.109253
0.093689
-0.0250244
-0.0924683
-0.108948
-0.0497437
0.0619507
0.119324
0.18219
0.283203
0.365601
0.382385
0.264587
-0.0436401
-0.403442
-0.541992
-0.423279
-0.198364
-0.0378418
0.0265503
0.0897217
0.0820923
0.0012207
-0.0164795
0.015564
0.0564575
0.0744629
0.0674438
0.0518799
0.0497437
0.0619507
0.0561523
0.0262451
-0.0106812
-0.0332642
-0.0372314
-0.0283813
0.0634766
0.164185
0.196838
0.203552
0.205383
0.0430298
-0.138245
-0.253296
-0.26001
-0.124512
0
0.0790405
0.10437
0.0582886
0.0421143
0.130005
0.0976562
0.0393677
-0.0357056
-0.124817
-0.142822
-0.0430298
0.0540161
0.123901
0.166016
0.236816
0.229797
0.139465
0.121155
0.178223
0.219727
0.263367
0.26825
0.158691
-0.146179
-0.341187
-0.279541
-0.186157
-0.115662
-0.123291
-0.149231
-0.122681
-0.113525
-0.071106
0.0228882
0.129089
0.161438
0.0579834
-0.0778198
-0.100098
-0.126038
-0.0634766
-0.00671387
-0.0402832
-0.0674438
-0.0576782
-0.0830078
-0.144958
-0.191345
-0.195618
-0.164795
-0.10437
-0.0518799
-0.0408936
-0.0228882
0.0527954
0.0787354
0.0369263
0
-0.0387573
-0.0704956
-0.0723267
-0.0289917
-0.0186157
-0.0704956
-0.0506592
0.0473022
0.103455
0.125427
0.127869
0.177612
0.124512
0.0271606
-0.0540161
-0.0335693
-0.0479126
-0.0631714
0.017395
0.0131226
-0.062561
-0.071106
0.00152588
0.11261
0.329285
0.523376
0.555725
0.456848
0.339355
0.0897217
-0.258484
-0.389709
-0.30426
-0.150146
-0.0418091
-0.0918579
-0.19043
-0.21637
-0.213928
-0.2005
-0.176392
-0.171509
-0.162048
-0.158386
-0.158691
-0.12146
-0.0125122
0.0512695
0.0784302
0.0912476
0.147705
0.171204
0.143433
0.109253
0.0933838
-0.0241089
-0.181274
-0.171814
-0.0982666
-0.022583
0.0421143
0.0582886
0.0256348
0.0137329
0.0982666
0.121765
0.0637817
0.017395
0.0387573
0.0238037
0.0323486
0.0506592
0
-0.106506
-0.115662
-0.0881958
-0.116882
-0.159607
-0.131531
-0.0924683
-0.0357056
0.0192261
0.0180054
0.0524902
0.167542
0.222473
0.232239
0.163879
0.0582886
-0.0653076
-0.131531
-0.160217
-0.131226
-0.0808716
-0.00366211
0.170593
0.285645
0.37323
0.437927
0.451355
0.398865
0.210266
-0.0738525
-0.328369
-0.32074
-0.221252
-0.122986
-0.0534058
0.0100708
0.0643921
0.038147
-0.114441
-0.210571
-0.188599
-0.14679
-0.126343
-0.0958252
-0.115051
-0.135803
-0.132446
-0.133972
-0.0610352
0.045166
0.126648
0.191956
0.1828
0.145874
0.148926
0.146179
0.201721
0.235901
0.146179
-0.00823975
-0.072937
-0.0552368
-0.0177002
-0.0378418
-0.126953
-0.25238
-0.284119
-0.23468
-0.169067
-0.0909424
0.0195312
0.065918
0.0369263
0.0567627
0.103455
0.0888062
-0.020752
-0.0601196
-0.0323486
-0.0250244
-0.0274658
-0.0335693
-0.0927734
-0.1651
-0.206909
-0.132751
-0.0262451
0.0811768
0.0778198
0.0561523
0.0457764
0.083313
0.0726318
0.0131226
-0.0604248
-0.0204468
0.0500488
0.0643921
0.06073
0.0219727
0.00610352
0.102539
0.188293
0.125122
0.101013
0.0506592
0.0540161
0.0976562
0.119629
0.158386
0.205994
0.192871
0.0405884
-0.158997
-0.238953
-0.216675
-0.140076
-0.116882
-0.188904
-0.243225
-0.273743
-0.301208
-0.275269
-0.176086
-0.0112915
0.112915
0.175476
0.189819
0.162354
0.189819
0.256042
0.253601
0.263977
0.316162
0.357666
0.361633
0.303345
0.119934
-0.0540161
-0.237732
-0.252075
-0.105286
0.144958
0.261536
0.206604
0.105286
0.039978
-0.00762939
-0.150146
-0.187073
-0.133972
-0.115967
-0.152283
-0.201111
-0.255432
-0.300293
-0.246887
-0.13855
-0.111389
-0.0958252
-0.0375366
0.0012207
-0.022583
-0.0183105
-0.0271606
-0.0683594
-0.110168
-0.115967
-0.0912476
-0.0350952
0.0854492
0.195007
0.26062
0.287781
0.279236
0.127869
-0.0759888
-0.185852
-0.134583
-0.0656128
-0.0195312
-0.0360107
-0.110168
-0.194702
-0.260315
-0.262451
-0.189209
-0.123291
0.0354004
0.149231
0.155945
0.138245
0.072937
0.0320435
0.032959
0.0283813
0.0692749
0.138855
0.162048
0.132751
-0.0189209
-0.140381
-0.169983
-0.101318
0.00732422
0.078125
0.127869
0.136108
0.137024
0.170898
0.0994873
-0.0338745
-0.120544
-0.0323486
0.0537109
0.13855
0.158691
0.13855
0.0662231
0.065918
0.10437
0.0814819
0.0289917
0.000305176
-0.0515747
-0.085144
-0.0308228
0.0701904
0.220947
0.292053
0.349121
0.392151
0.404968
0.305176
0.197754
0.0906372
-0.126038
-0.431213
-0.501404
-0.49469
-0.46051
-0.443726
-0.350952
-0.195618
-0.0198364
0.134583
0.218506
0.210876
0.12207
-0.0387573
-0.217896
-0.337524
-0.222473
-0.106506
-0.122986
-0.120239
-0.0213623
0.00762939
-0.0454712
-0.0732422
-0.0195312
0.0506592
0.06073
0.0540161
0.0622559
0.103149
0.155945
0.0845337
0.0204468
0.0537109
0.0634766
-0.00579834
-0.0894165
-0.107117
-0.100403
-0.0350952
0.072937
0.170898
0.293884
0.35553
0.335693
0.197144
-0.0418091
-0.144043
-0.154419
-0.120239
-0.0250244
0.0878906
0.166321
0.192261
0.0708008
-0.0949097
-0.138855
-0.135803
-0.135803
-0.124207
-0.133972
-0.202637
-0.177002
0.0500488
0.254822
0.367432
0.462341
0.423889
0.179443
-0.0146484
-0.0256348
0.00305176
0.0332642
0.143433
0.155945
0.00610352
-0.128479
-0.230713
-0.28717
-0.284119
-0.265808
-0.270081
-0.24292
-0.1651
-0.00579834
0.0927734
0.0228882
-0.0595093
-0.0869751
-0.0765991
-0.057373
-0.0314331
-0.0088501
0.0177002
0.045166
0.0396729
0.039978
0.020752
0.00152588
-0.00946045
0.010376
0.0320435
0.0695801
0.0500488
0.0927734
0.179443
0.256653
0.335388
0.310364
0.173645
0.0253296
-0.0991821
-0.166321
-0.117188
-0.0683594
-0.078125
-0.105591
-0.129089
-0.12207
-0.136108
-0.123596
-0.00946045
0.140381
0.219727
0.285645
0.330505
0.340881
0.336609
0.292053
0.10437
-0.0283813
0.0640869
0.233154
0.298157
0.296936
0.285339
0.0302124
-0.32074
-0.43335
-0.318909
-0.162048
0.0183105
0.124207
0.128479
0.0521851
-0.111694
-0.329285
-0.333862
-0.293274
-0.220032
-0.176392
-0.15686
-0.151672
-0.149841
-0.144043
-0.105896
-0.0512695
-0.0234985
-0.00823975
0.133667
0.229797
0.197449
0.183105
0.138855
0.0756836
0.146179
0.273743
0.307617
0.228882
0.098877
-0.102234
-0.267029
-0.366211
-0.315857
-0.18219
-0.0674438
-0.0250244
-0.0201416
0.0341797
0.102844
0.112915
0.120239
0.155945
0.0894165
-0.147705
-0.249329
-0.219727
-0.161438
-0.0918579
-0.00244141
0.0271606
-0.0167847
-0.0344849
0.0131226
0.0982666
0.140686
0.140076
0.0439453
-0.0204468
-0.0143433
0.0216675
0.0515747
0.0415039
0.0588989
0.0592041
-0.0198364
-0.0854492
-0.098877
-0.0857544
-0.0704956
-0.0616455
-0.0189209
0.0231934
0.00946045
0.0115967
0.032959
0.0820923
0.177917
0.273438
0.25238
0.156555
0.133972
0.193481
0.324707
0.497742
0.606689
0.608215
0.411987
-0.0100708
-0.379944
-0.559998
-0.640564
-0.618591
-0.554504
-0.454102
-0.300293
-0.155334
0.0476074
0.195007
0.228577
0.24231
0.268555
0.255127
0.107422
-0.0485229
-0.0881958
-0.17395
-0.322571
-0.313721
-0.233154
-0.137024
-0.0949097
-0.109863
-0.057373
0.0180054
0.0378418
0.032959
0.00823975
0.00549316
0.0402832
0.11322
0.105286
0.0326538
-0.0231934
-0.0460815
-0.0646973
-0.0683594
-0.0354004
-0.0305176
0.0463867
0.101624
0.130615
0.163269
0.1828
0.122986
-0.0216675
-0.0674438
-0.101624
-0.133667
-0.140686
-0.0842285
0.0219727
0.167542
0.198059
0.237732
0.231018
0.13031
0.0192261
-0.0256348
-0.0512695
0.0131226
0.0720215
-0.0320435
-0.177612
-0.13031
-0.0491333
0.0366211
0.0592041
0.0244141
0.00671387
-0.0689697
-0.0952148
-0.0805664
0.0115967
0.0802612
0.0463867
0.0323486
0.0393677
0.0604248
0.017395
0.0396729
0.116882
0.166931
0.18158
0.15564
0.0961304
-0.0384521
-0.172424
-0.168762
-0.0689697
-0.0305176
-0.0439453
-0.0384521
-0.00610352
0.0646973
0.143738
0.0924683
-0.0271606
-0.122986
-0.115967
0.0106812
0.12146
0.204773
0.231323
0.103455
-0.0933838
-0.175476
-0.117188
-0.0296021
0.0488281
0.0454712
0.0143433
-0.0479126
-0.055542
-0.0131226
-0.0088501
0.102844
0.227051
0.311279
0.377197
0.300293
0.13916
0.0723267
-0.0463867
-0.238037
-0.330505
-0.289917
-0.17334
0.0653076
0.242615
0.205688
0.0689697
0.0735474
0.0949097
-0.0109863
-0.15686
-0.300293
-0.401917
-0.336304
-0.219727
-0.109863
0.0134277
0.169373
0.250549
0.273132
0.226135
0.13855
0.0289917
-0.050354
-0.0637817
-0.0543213
-0.0897217
-0.134888
-0.11322
-0.100403
-0.123901
-0.143738
-0.145264
-0.120239
-0.0778198
-0.0320435
-0.00244141
0.0637817
0.117493
0.211182
0.186157
0.0958252
0.00213623
0.0164795
0.038147
0.145264
0.286865
0.26825
0.108643
0.0115967
0.00518799
0.012207
0.0714111
0.151367
0.183411
0.16449
0.124207
0.0189209
-0.0726318
-0.0665283
-0.0311279
-0.0561523
-0.0390625
0.0149536
-0.00396729
-0.0296021
0.0164795
0.0689697
0.0576782
0.0112915
-0.0250244
0.0259399
0.0680542
-0.0106812
-0.136414
-0.188904
-0.24292
-0.315247
-0.307922
-0.203552
-0.133972
-0.167236
-0.231018
-0.223999
-0.168152
-0.124817
-0.0491333
0.0753784
0.155945
0.184937
0.16449
0.0933838
0.0665283
0.0881958
0.124207
0.135803
0.128479
0.124207
0.146484
0.166626
0.171814
0.0811768
-0.0424194
-0.114441
-0.116272
-0.106812
0.0106812
0.143127
0.150452
0.104675
0.0393677
-0.0112915
0.0134277
0.0595093
0.0585938
0.0119019
-0.0384521
-0.0918579
-0.100403
-0.115356
-0.131531
-0.0897217
-0.017395
0.0305176
0.0289917
0.0366211
0.0204468
0.0167847
0.00671387
0.0280762
0.102539
0.173035
0.170288
0.133057
0.0662231
-0.0686646
-0.238647
-0.300903
-0.2771
-0.207825
-0.1651
-0.151672
-0.0720215
0.0485229
0.136414
0.168152
0.132141
0.0588989
-0.0012207
0.00732422
0.00183105
0.0610352
0.183716
0.325928
0.397644
0.40863
0.309448
0.0747681
-0.0369263
-0.0448608
-0.0247192
-0.071106
-0.122375
-0.138245
-0.126038
-0.050354
-0.0405884
-0.0283813
-0.0570679
-0.186462
-0.310059
-0.26825
-0.18219
-0.102234
-0.0390625
-0.0369263
-0.0698853
-0.0662231
-0.0662231
-0.0909424
-0.0741577
-0.0408936
-0.0354004
-0.00305176
0.0283813
0.0393677
0.027771
-0.0418091
-0.113525
-0.119629
-0.0979614
-0.0088501
0.0494385
0.136414
0.248108
0.2771
0.186768
0.0653076
-0.00518799
-0.0271606
-0.0332642
-0.0531006
-0.0665283
-0.0390625
-0.00213623
0.0515747
0.0558472
-0.0299072
-0.0735474
-0.0372314
0.0704956
0.166931
0.206909
0.158691
0.0427246
-0.0109863
0.0378418
0.137024
0.222778
0.162964
0.0683594
-0.0457764
-0.119934
-0.128479
-0.214539
-0.0753784
-0.0482178
-0.0924683
-0.0912476
-0.0830078
-0.0418091
-0.0366211
-0.0158691
-0.039978
-0.0323486
0.0476074
0.141602
0.215149
0.157776
0.00946045
-0.0637817
-0.0930786
-0.139465
-0.0933838
-0.0686646
-0.131836
-0.224304
-0.237122
-0.132751
-0.00976562
0.0384521
0.062561
0.0558472
0.0769043
0.113831
0.159302
0.168762
0.10376
0.0170898
-0.0274658
-0.00579834
0.0564575
0.0219727
-0.0912476
-0.0991821
-0.0753784
-0.101318
-0.0802612
-0.0479126
0.0177002
0.0570679
0.0970459
0.0939941
0.112305
0.0976562
0.0445557
0.00305176
-0.0967407
-0.130615
-0.0942993
0
0.189209
0.331116
0.378723
0.34729
0.231323
0.130615
0.0140381
-0.0958252
-0.243225
-0.310669
-0.259705
-0.193176
-0.131836
-0.0759888
-0.0369263
-0.0125122
0.0231934
0.0204468
0.0875854
0.148621
0.171204
0.153809
0.170898
0.201721
0.218811
0.263672
0.247803
0.0741577
-0.162964
-0.281067
-0.291748
-0.267029
-0.194092
-0.11261
-0.00549316
0.107117
0.210876
0.227051
0.0582886
-0.0848389
-0.0976562
-0.0378418
-0.0445557
-0.0714111
-0.0842285
-0.06073
-0.0466919
-0.0695801
-0.0650024
-0.0354004
0.0509644
0.121765
0.0354004
-0.0244141
-0.0128174
-0.0393677
-0.0375366
-0.0289917
-0.0256348
-0.0341797
-0.032959
-0.0665283
-0.160217
-0.172119
-0.140991
-0.0686646
0.045166
0.167847
0.258484
0.415039
0.516968
0.498962
0.398254
0.185242
-0.0741577
-0.172119
-0.159302
-0.122986
-0.0350952
-0.00823975
-0.0726318
-0.138245
-0.179138
-0.228577
-0.209045
-0.187988
-0.194092
-0.211182
-0.216064
-0.185852
-0.0918579
0.032959
0.14679
0.262756
0.350647
0.317078
0.18219
0.190735
0.236511
0.240784
0.183716
0.0680542
-0.202026
-0.351257
-0.275574
-0.128784
-0.0540161
-0.108337
-0.1651
-0.198364
-0.151672
-0.125427
-0.0588989
0.0140381
0.0570679
0.0845337
0.0585938
0.015564
-0.0326538
-0.0689697
-0.0354004
-0.00671387
-0.0158691
-0.0244141
0
0.0598145
0.0952148
0.0759888
0.0564575
0.0592041
0.0241089
-0.00793457
0.0415039
0.0680542
0.0717163
0.0698853
0.045166
0.015564
0.0167847
0.0497437
0.090332
0.115967
0.102539
0.0360107
-0.0216675
0.00396729
0.0778198
0.141296
0.223083
0.328064
0.324707
0.238037
0.11261
-0.104675
-0.229492
-0.331116
-0.393677
-0.401611
-0.374146
-0.237732
-0.0860596
0.0479126
0.139465
0.144043
0.0604248
-0.0222778
-0.0268555
0.0192261
0.0372314
0
-0.0650024
-0.0915527
-0.085144
-0.0958252
-0.0289917
0.0405884
0.0396729
0.0244141
0.0164795
0.0350952
0.0115967
-0.00915527
-0.06073
-0.0875854
-0.0494385
0.00610352
0.134277
0.235596
0.332336
0.328369
0.290527
0.201416
0.136719
-0.0256348
-0.254517
-0.319214
-0.286255
-0.269775
-0.276184
-0.284729
-0.256653
-0.149231
-0.0390625
-0.0231934
0.0115967
0.0250244
0.0741577
0.146179
0.157471
0.119324
0.0164795
-0.1651
-0.235291
-0.190125
-0.0668335
0.0891113
0.212097
0.199585
0.0964355
0.0912476
0.232239
0.351257
0.37384
0.357361
0.226135
0.010376
-0.0958252
-0.156555
-0.219421
-0.227356
-0.202942
-0.186157
-0.133972
-0.140991
-0.0521851
0.111084
0.267334
0.265503
0.0915527
-0.114136
-0.106506
-0.0256348
-0.0494385
-0.0860596
-0.0616455
-0.0778198
-0.161438
-0.198059
-0.0900269
0.0436401
0.11322
0.0997925
0.0332642
-0.0161743
0.03479
0.114441
0.067749
-0.0485229
-0.158997
-0.215759
-0.16571
-0.0588989
0.055542
0.140076
0.214539
0.209045
0.143433
0.067749
0.0183105
-0.0408936
-0.0933838
-0.0631714
0.00671387
0.126648
0.185242
0.158081
0.0994873
0.0332642
-0.0888062
-0.132751
-0.0531006
-0.00152588
-0.015564
0.0320435
0.0839233
0.185242
0.284729
0.276489
0.264587
0.0927734
-0.163574
-0.296326
-0.354004
-0.374146
-0.297241
-0.155334
-0.0320435
0.0958252
0.155029
0.183105
0.207825
0.131836
0.00518799
-0.0842285
-0.130005
-0.168457
-0.205383
-0.210266
-0.131531
0.00335693
0.158386
0.19165
0.093689
0.00732422
-0.072937
-0.134583
-0.135803
-0.0561523
0.00610352
0.0170898
-0.00396729
0.00762939
0.0582886
0.0952148
0.125732
0.103149
-0.0366211
-0.120544
-0.0939941
0.0164795
0.273132
0.462952
0.528564
0.37323
0.0402832
-0.292664
-0.408325
-0.243835
-0.0762939
-0.0283813
0.088501
0.179138
0.284424
0.331726
0.227661
-0.0280762
-0.2771
-0.436707
-0.32074
-0.141296
-0.0265503
-0.0619507
-0.131836
-0.1828
-0.229187
-0.246277
-0.180969
-0.130615
-0.166321
-0.151672
-0.0610352
0.0619507
0.150146
0.171509
0.0927734
0.0543213
0.0735474
0.108643
0.0994873
0.0640869
0.0289917
0
-0.0512695
-0.0534058
-0.0302124
-0.0201416
-0.0695801
-0.0845337
0
0.0540161
0.0595093
0.0973511
0.175476
0.278931
0.228271
0.0491333
-0.0460815
-0.0967407
-0.0463867
0.0613403
0.222168
0.370789
0.46936
0.509033
0.448303
0.330811
0.177612
-0.177002
-0.427246
-0.292358
-0.122986
-0.0289917
-0.0177002
-0.0460815
-0.127258
-0.163879
-0.112
-0.105286
-0.0820923
-0.0808716
-0.183105
-0.282898
-0.320435
-0.324707
-0.269775
-0.198059
-0.119324
-0.0350952
0.0372314
0.0970459
0.140991
0.109863
0.0997925
0.260925
0.426941
0.50293
0.464478
0.260925
-0.0253296
-0.132751
0.0296021
0.219421
0.158081
0.00488281
-0.0601196
-0.0457764
0.0387573
0.146179
0.0521851
-0.150452
-0.230713
-0.198059
-0.176392
-0.243225
-0.306396
-0.333862
-0.278015
-0.144043
-0.0567627
-0.00610352
0.0732422
0.220642
0.315857
0.370483
0.317078
0.0912476
-0.0341797
-0.0689697
-0.109253
-0.180359
-0.150146
-0.0253296
0.0518799
0.116577
0.0753784
0.0582886
0.123596
0.0561523
-0.0753784
-0.133972
-0.162354
-0.141296
-0.0637817
-0.0421143
-0.0845337
-0.159302
-0.180969
-0.154724
-0.0909424
-0.0146484
0.0637817
0.085144
0.0164795
-0.0469971
-0.057373
-0.0750732
-0.055542
0.0320435
0.130005
0.177612
0.188599
0.121155
0.00823975
0.0143433
0.13092
0.272827
0.317383
0.273438
0.243835
0.338745
0.377502
0.327454
0.214233
0.0878906
0.0939941
0.124207
0.154724
0.148926
0.0762939
-0.0146484
-0.085144
-0.119019
-0.150757
-0.235596
-0.321045
-0.330505
-0.290222
-0.154724
-0.00549316
0.0643921
-0.0326538
-0.166931
-0.200195
-0.203857
-0.164795
-0.17395
-0.205383
-0.127563
-0.0189209
0.0564575
-0.0588989
-0.209961
-0.19928
-0.0924683
0.0802612
0.176086
0.0979614
0.109558
0.241089
0.365601
0.431824
0.412292
0.379639
0.169067
-0.161438
-0.332642
-0.365906
-0.271301
-0.223999
-0.183716
-0.142212
-0.100403
-0.0857544
-0.062561
-0.0662231
-0.0418091
-0.0314331
-0.0509644
-0.122986
-0.0866699
-0.0720215
-0.0561523
-0.0100708
0.0424194
0.043335
0.0485229
0.158386
0.381165
0.541687
0.592346
0.496521
0.340271
0.121155
-0.0570679
-0.169373
-0.241089
-0.216064
-0.140686
-0.140991
-0.147705
-0.118103
-0.0613403
0.0192261
-0.0344849
-0.133057
-0.155334
-0.167847
-0.154419
-0.0164795
0.119629
0.187378
0.170593
0.112915
0.027771
-0.093689
-0.166626
-0.101929
-0.0369263
0.00701904
0.0619507
0.106201
0.212097
0.226135
0.133667
-0.0543213
-0.235596
-0.2948
-0.184326
-0.0665283
0.0350952
0.10437
0.0897217
0.0759888
0.122986
0.201721
0.229187
0.23468
0.201111
0.0460815
-0.0415039
-0.0793457
-0.0653076
-0.0100708
0
-0.0466919
-0.125122
-0.246277
-0.274963
-0.217896
-0.124512
-0.0350952
0.0491333
0.0939941
0.125122
0.114136
0.103455
0.0952148
0.125122
0.138245
0.168152
0.232239
0.0839233
-0.258789
-0.39093
-0.299988
-0.0976562
0.0567627
0.103455
0.0708008
-0.0366211
-0.179443
-0.231628
-0.19165
-0.0991821
0.00732422
0.0509644
0.0753784
0.088501
0.0683594
0.0952148
0.0747681
0.0778198
0.0946045
0.0369263
-0.0619507
-0.0491333
0.0671387
0.102844
0.0637817
0.0994873
0.141296
0.205383
0.265198
0.282288
0.256348
0.304565
0.301514
0.187683
0.0558472
-0.0308228
-0.197449
-0.335999
-0.348816
-0.307312
-0.317993
-0.359802
-0.341492
-0.324707
-0.311279
-0.256348
-0.184326
-0.0460815
0.0460815
0.0485229
0.158081
0.238037
0.324402
0.439148
0.475769
0.335388
0.161133
-0.0167847
0.0189209
0.00549316
-0.145874
-0.261536
-0.249634
-0.221252
-0.196228
-0.185242
-0.235901
-0.310669
-0.256042
-0.0314331
0.179749
0.299683
0.354309
0.461731
0.544739
0.569763
0.652161
0.647278
0.429993
0.187988
-0.135803
-0.310364
-0.38208
-0.440369
-0.534973
-0.570679
-0.475159
-0.326843
-0.093689
0.0427246
0.0769043
-0.0158691
-0.180054
-0.21759
-0.0894165
0.017395
0.0698853
0.112915
0.188293
0.3125
0.333557
0.274658
0.144348
-0.0378418
-0.140686
-0.100098
0.0326538
0.229797
0.401917
0.456238
0.363464
0.0259399
-0.270996
-0.250244
-0.129089
-0.0756836
-0.105286
-0.136719
-0.0790405
0.0845337
0.203552
0.222473
0.116882
-0.0653076
-0.200195
-0.115662
0.119629
0.334167
0.458679
0.40863
0.175171
-0.0744629
-0.254517
-0.244751
-0.238342
-0.291443
-0.297852
-0.329285
-0.319519
-0.299072
-0.31189
-0.341492
-0.317993
-0.162659
0.0326538
0.160217
0.193787
0.1297
0.121765
0.137634
0.236511
0.372314
0.497131
0.477905
0.290222
0.0585938
-0.090332
-0.130615
-0.100403
-0.0930786
-0.0997925
-0.0894165
-0.0909424
-0.0411987
0.11322
0.212708
0.209656
0.206299
0.15564
0.0415039
-0.0558472
-0.111084
-0.169678
-0.195007
-0.219727
-0.219727
-0.166321
-0.107117
0.000915527
0.106201
0.186462
0.238647
0.185852
0.0915527
-0.0198364
-0.0357056
0.0167847
0.154419
0.278931
0.384216
0.357971
0.202332
0.071106
0.0558472
0.100403
0.171509
0.26123
0.254822
0.0408936
-0.235901
-0.325928
-0.201416
-0.112915
-0.170898
-0.298462
-0.365601
-0.355225
-0.211487
0.113525
0.3125
0.390015
0.412292
0.235596
-0.0772095
-0.240479
-0.231628
-0.207825
-0.231628
-0.196228
-0.209961
-0.191956
-0.102539
0.00305176
0.0735474
0.102539
0.127258
0.136108
0.0680542
0.0357056
0.032959
0.0115967
0.0973511
0.202942
0.193787
0.27832
0.39978
0.302429
0.085144
-0.0219727
-0.161133
-0.302429
-0.391541
-0.33905
-0.281372
-0.225525
-0.118103
-0.0695801
-0.0723267
-0.0961304
-0.10437
-0.10376
-0.0708008
-0.110168
-0.126648
-0.102844
-0.0683594
0.00610352
0.0842285
0.109558
0.0842285
0.0424194
0.0338745
0.0466919
0.0662231
0.118103
0.2005
0.196838
0.0942993
-0.106201
-0.198669
-0.133362
-0.00427246
0.149536
0.274658
0.37384
0.290222
0.162964
0.0469971
0.0894165
0.180054
0.212708
0.174866
0.0509644
-0.0332642
-0.0527954
0.0439453
0.189819
0.221863
0.147705
-0.0234985
-0.171204
-0.324097
-0.342102
-0.306091
-0.308228
-0.299072
-0.233459
-0.227051
-0.163269
-0.10376
-0.105286
-0.0177002
0.0302124
0.0177002
0.00274658
0.0674438
0.1651
0.173035
0.170288
0.161438
0.15564
0.204773
0.203247
0.0970459
0.0643921
0.130615
0.135193
0.0311279
-0.162964
-0.336914
-0.270691
-0.168457
-0.112305
-0.134583
-0.186157
-0.198975
-0.1651
-0.140381
-0.121765
-0.09552
-0.0985718
-0.078125
-0.0540161
-0.0308228
-0.0375366
0.00518799
0.145264
0.191345
0.137939
0.0192261
-0.0900269
-0.0942993
-0.012207
0.0616455
0.0372314
-0.0180054
0.0411987
0.148315
0.240173
0.302124
0.258179
0.192261
0.0784302
-0.0845337
-0.123596
-0.10376
-0.127258
-0.127869
-0.171814
-0.240784
-0.271301
-0.176392
0.00762939
0.21698
0.342102
0.340576
0.24292
0.0787354
0.0128174
0.136414
0.295715
0.367737
0.211182
0.012207
-0.0802612
-0.067749
-0.0918579
-0.0900269
-0.122986
-0.142517
-0.196838
-0.190735
-0.127869
-0.105591
-0.140686
-0.153198
-0.0964355
-0.0405884
-0.0186157
-0.0274658
-0.0384521
-0.0646973
-0.0762939
-0.0839233
-0.0839233
-0.00549316
0.038147
0.0497437
0.0509644
0.111389
0.175476
0.202637
0.313721
0.412903
0.301819
0.16449
0.149231
0.102539
-0.0128174
0.0128174
0.083313
0.0457764
-0.0823975
-0.134888
-0.217896
-0.221558
-0.184021
-0.16449
-0.143738
-0.187988
-0.26001
-0.280151
-0.242615
-0.178528
-0.102234
-0.0204468
0.0311279
0.0875854
0.0595093
0.0427246
0.0604248
0.107727
0.124207
0.10437
0.0814819
0.10376
0.11261
0.0790405
0.06073
0.0839233
0.0830078
0.137329
0.204468
0.220032
0.198975
0.0674438
-0.0604248
-0.147705
-0.174255
-0.0946045
-0.0234985
-0.0308228
-0.0387573
0.0213623
0.167847
0.300293
0.37262
0.378723
0.363464
0.323792
0.307312
0.105286
-0.194397
-0.347595
-0.354309
-0.366516
-0.375366
-0.381165
-0.396423
-0.363159
-0.263977
-0.188293
-0.126343
0.0332642
0.131836
0.118103
0.0738525
0.0939941
0.101013
0.140076
0.203552
0.177307
0.0732422
0.0140381
0.0402832
0.0717163
0.027771
-0.0363159
0.0500488
0.190735
0.318298
0.38147
0.366211
0.379333
0.257263
0.0738525
0.06073
0.130615
0.0387573
-0.150452
-0.297241
-0.3479
-0.307922
-0.158691
-0.137024
-0.110779
-0.0524902
-0.00488281
-0.045166
-0.123291
-0.144043
-0.128784
-0.124207
-0.159607
-0.23468
-0.242004
-0.135193
0.0848389
0.345764
0.449219
0.380249
0.250854
0.0723267
-0.0674438
-0.0830078
-0.017395
0.0735474
0.0909424
0.0231934
-0.112
-0.288391
-0.306702
-0.198059
-0.0915527
-0.0842285
-0.185547
-0.247803
-0.243225
-0.194092
-0.0961304
0.0521851
0.153198
0.19165
0.209961
0.243225
0.292358
0.341492
0.241394
-0.0250244
-0.201721
-0.323486
-0.408936
-0.280762
0.0274658
0.394592
0.552673
0.517273
0.342712
0.0454712
-0.281372
-0.461731
-0.447693
-0.262756
-0.0967407
0.0119019
0.0918579
0.211792
0.224304
0.142517
0.129395
0.0820923
0.00671387
-0.0784302
-0.0540161
0.03479
0.0311279
-0.0888062
-0.253601
-0.294495
-0.283203
-0.215454
0.0119019
0.264587
0.413818
0.435181
0.228271
-0.0656128
-0.193787
-0.172424
-0.022583
0.121155
0.246277
0.259705
0.141296
-0.0524902
-0.180664
-0.270386
-0.282288
-0.244446
-0.219727
-0.115051
0.0918579
0.264587
0.239258
0.183716
0.114136
-0.0942993
-0.188599
-0.144043
-0.09552
-0.0344849
-0.0335693
-0.0604248
-0.0509644
-0.0814819
-0.116577
-0.0735474
-0.00579834
0.0314331
0.122375
0.161438
0.118713
0.0698853
0.0866699
0.0726318
0.103455
0.114136
0.0552368
-0.0186157
-0.0299072
-0.0152588
0.032959
0.0994873
0.169983
0.274353
0.357971
0.334778
0.115356
-0.117798
-0.213013
-0.237122
-0.284119
-0.30304
-0.26947
-0.249023
-0.250854
-0.19989
-0.083313
0.0222778
0.128174
0.230408
0.210266
0.0701904
0.0469971
0.0646973
-0.0283813
-0.137024
-0.188293
-0.24231
-0.28717
-0.228577
-0.0588989
0.0262451
-0.00518799
-0.00457764
0.0109863
0.0131226
0.0942993
0.204773
0.301819
0.294189
0.105896
-0.0549316
-0.151367
-0.162659
-0.113525
-0.050354
-0.0436401
0.0140381
0.171204
0.285645
0.328979
0.218506
-0.0280762
-0.180969
-0.265198
-0.203857
-0.0521851
0.137329
0.337219
0.450134
0.413513
0.299377
0.0997925
-0.13092
-0.212097
-0.123291
-0.0317383
-0.065918
-0.193481
-0.227356
-0.109863
0.0848389
0.123291
0.0506592
0.0518799
0.133972
0.227966
0.288086
0.235901
0.00823975
-0.228577
-0.364075
-0.422058
-0.422668
-0.379944
-0.317383
-0.215759
-0.0674438
0.0848389
0.192871
0.240784
0.239563
0.218811
0.0485229
-0.0860596
-0.098877
-0.0143433
0.106812
0.243225
0.355835
0.370483
0.341797
0.209961
0.0341797
-0.071106
-0.13092
-0.155029
-0.115051
-0.0784302
-0.0994873
-0.133362
-0.10376
-0.0656128
-0.03479
0.0442505
0.159302
0.163269
0.118713
0.0344849
-0.0183105
-0.0177002
-0.0137329
-0.0180054
-0.072937
-0.117493
-0.0671387
0.0140381
0.088501
0.212708
0.36499
0.45166
0.466919
0.342712
0.100708
-0.0344849
-0.133057
-0.213928
-0.192566
-0.146484
-0.1828
-0.249329
-0.270081
-0.208435
-0.122375
0
0.0228882
-0.071106
-0.198059
-0.211487
-0.0805664
-0.015564
-0.0552368
-0.193481
-0.215759
-0.106506
0.0900269
0.198975
0.231628
0.234375
0.267334
0.193176
0.0820923
-0.0299072
-0.107422
-0.109863
0.0131226
0.0735474
0.098877
0.169983
0.168457
0.0820923
-0.0387573
-0.11261
-0.11261
-0.0967407
-0.072937
-0.0115967
0.0436401
-0.0198364
-0.0912476
-0.103455
-0.0842285
-0.0732422
-0.0762939
-0.0793457
-0.0854492
-0.0881958
-0.104675
-0.0775146
-0.0241089
0.0195312
0.0726318
0.129395
0.160828
0.171204
0.148621
0.0784302
-0.00946045
-0.0216675
0.0662231
