0.0653076
0.224304
0.293579
0.249023
0.158691
0.105286
0.107422
0.0680542
-0.0820923
-0.172424
-0.252075
-0.290833
-0.28595
-0.329895
-0.402527
-0.376892
-0.286255
-0.194092
-0.0909424
0.0305176
0.104675
0.164185
0.0915527
-0.160217
-0.211182
-0.032959
0.283508
0.534058
0.542297
0.319214
0.0521851
-0.168152
-0.335693
-0.365906
-0.252991
-0.125732
-0.0994873
-0.151367
-0.188599
-0.153809
-0.126648
-0.100403
-0.108337
-0.127258
-0.0836182
-0.067749
-0.109558
-0.171814
-0.212402
-0.0897217
0.098877
0.228577
0.295105
0.437317
0.47821
0.417786
0.386963
0.291138
0.232849
0.195923
0.0717163
-0.0549316
-0.0436401
0.0708008
0.257568
0.451355
0.361023
0.0393677
-0.35614
-0.555725
-0.541077
-0.465393
-0.409851
-0.340881
-0.244446
-0.16571
-0.117188
-0.0918579
-0.0402832
0.0656128
0.18158
0.207825
0.185547
0.0186157
-0.257263
-0.482483
-0.411682
-0.0579834
0.317688
0.63324
0.744019
0.565186
0.224304
-0.0469971
-0.226135
-0.220032
-0.115967
-0.0720215
-0.071106
0.0283813
0.215759
0.289917
0.295105
0.265503
0.0656128
-0.0900269
-0.205994
-0.256958
-0.185547
-0.0506592
0.0411987
0.0476074
-0.00213623
-0.0863647
-0.13916
-0.192871
-0.222473
-0.184021
-0.155334
-0.107117
-0.0601196
-0.020752
-0.0137329
-0.0518799
-0.0445557
0.0726318
0.289001
0.653992
1.04401
1.07208
0.786133
0.0827026
-0.366211
-0.452576
-0.369263
-0.304871
-0.340576
-0.385132
-0.39856
-0.43457
-0.466614
-0.484009
-0.401306
-0.230713
-0.0411987
0.0485229
0.126648
0.155945
0.113831
0.0717163
0.0485229
-0.00854492
-0.0827026
-0.10376
-0.0921631
-0.0109863
0.0601196
0.0796509
0.0848389
0.10498
0.101624
0.0640869
0.0564575
0.0701904
0.155334
0.282593
0.395508
0.421143
0.289001
0.127869
0.0378418
-0.0314331
-0.0695801
-0.0701904
-0.0665283
-0.0350952
-0.00518799
0.0479126
0.0363159
0.0320435
0.0680542
0.101013
0.0717163
0.0485229
0.0256348
0.0115967
0.0613403
0.137329
0.243225
0.309143
0.279541
0.180054
0.0543213
-0.0228882
-0.0332642
-0.0344849
0.045166
0.137329
0.243835
0.381165
0.486145
0.361023
0.220642
0.175171
0.120239
-0.0119019
-0.139771
-0.219727
-0.212402
-0.256348
-0.313721
-0.292053
-0.270081
-0.267334
-0.282288
-0.263977
-0.220642
-0.196533
-0.134583
-0.110779
-0.0796509
-0.0473022
-0.0408936
-0.0152588
0
0.0247192
-0.0012207
-0.0631714
-0.124817
-0.183716
-0.23468
-0.30426
-0.335693
-0.256958
-0.123901
0.0674438
0.247192
0.231628
0.145264
0.0790405
0.0656128
0.0765991
0.118408
0.18158
0.259399
0.307007
0.244446
0.179749
0.209045
0.243835
0.308533
0.282898
0.174561
0.0393677
0.00213623
-0.00335693
0.0241089
0.104065
0.140991
0.163269
0.247498
0.236816
0.171204
0.0775146
-0.0543213
-0.184937
-0.296021
-0.328979
-0.348511
-0.332642
-0.270691
-0.1651
-0.0802612
-0.0894165
-0.154114
-0.162964
-0.187378
-0.231018
-0.205994
-0.196228
-0.222473
-0.22583
-0.184631
-0.127258
-0.111084
-0.0869751
-0.0137329
0.0872803
0.133057
0.162354
0.175171
0.151062
0.113831
0.0411987
0.00366211
0.00946045
0.0671387
0.10376
0.116577
0.148926
0.167847
0.141907
0.0778198
0.0262451
0.0506592
0.0558472
0.00976562
-0.0650024
-0.0726318
-0.0369263
0.122375
0.305176
0.497742
0.558472
0.358582
0.0692749
-0.0820923
-0.067749
0.0848389
0.178528
0.158997
-0.0100708
-0.166931
-0.201721
-0.229187
-0.239868
-0.18219
-0.202637
-0.303955
-0.307007
-0.198364
-0.125122
-0.072937
-0.0588989
-0.0177002
0
0.022583
0.0906372
0.130615
0.127869
0.0411987
-0.0912476
-0.185852
-0.22522
-0.259705
-0.244446
-0.178833
-0.0762939
0.0109863
0.0796509
0.112915
0.126343
0.130615
0.141907
0.142517
0.107117
0.0784302
0.157166
0.204163
0.204773
0.175476
0.116882
0.0601196
0.0180054
-0.0491333
-0.131226
-0.219421
-0.255737
-0.214233
-0.140686
-0.0506592
0.0497437
0.0765991
0.0524902
-0.00488281
-0.00274658
0.0610352
0.131226
0.187683
0.228577
0.256958
0.309143
0.289307
0.254822
0.152283
0.0646973
0.189209
0.336609
0.356445
0.358582
0.314941
0.0952148
-0.116272
-0.262146
-0.361633
-0.43396
-0.400085
-0.324402
-0.178528
-0.0506592
0.0131226
-0.0805664
-0.220947
-0.322571
-0.354004
-0.342102
-0.265198
-0.141296
-0.0860596
-0.0210571
0.0454712
0.106201
0.145569
0.200195
0.299072
0.280457
0.249023
0.18219
0.0930786
0.0497437
0.0164795
-0.0253296
-0.0357056
-0.0131226
0.0570679
0.121765
0.112
-0.0601196
-0.228882
-0.220642
-0.115356
-0.0436401
0.0256348
0.1297
0.270081
0.203552
0.0637817
-0.0439453
-0.127563
-0.143738
-0.0805664
0.0402832
0.193176
0.239563
0.191345
0.0704956
-0.0753784
-0.221558
-0.301819
-0.260315
-0.186157
-0.117493
-0.0564575
-0.0158691
0.0408936
0.0817871
0.0622559
0.0387573
0.0305176
0.0183105
0.0289917
0.0289917
0.0393677
0.109558
0.236816
0.333862
0.311279
0.234375
0.112
0.0363159
0.0814819
0.185852
0.296631
0.299683
0.150452
-0.0323486
-0.140686
-0.154114
-0.131226
-0.0915527
-0.0378418
-0.0265503
0.00518799
0.0491333
0.032959
0.057373
0.0543213
0.0488281
0.0460815
0.0280762
-0.0363159
-0.115356
-0.145569
-0.0869751
-0.00762939
0.0588989
0.0888062
0.0927734
0.0332642
-0.11261
-0.122375
-0.0344849
-0.0274658
-0.0125122
-0.020752
-0.012207
-0.0604248
-0.0784302
-0.0726318
-0.0741577
-0.0430298
0.0360107
0.162048
0.216064
0.212097
0.181885
0.0820923
0.0656128
0.101929
0.121765
0.0946045
0.0485229
-0.0152588
-0.0680542
-0.0805664
-0.0698853
-0.0875854
-0.1651
-0.157471
-0.0784302
0.0579834
0.223999
0.315247
0.323792
0.309448
0.187378
0.0765991
0.0289917
0.0234985
-0.00610352
-0.0125122
0.0946045
0.209045
0.324402
0.420837
0.358887
0.114746
-0.0772095
-0.316467
-0.441589
-0.38269
-0.274963
-0.202942
-0.145569
-0.119934
-0.135498
-0.112305
-0.0598145
-0.00671387
0.0411987
-0.0128174
-0.10437
-0.127869
-0.0961304
-0.104065
-0.0250244
0.0106812
-0.0643921
-0.0894165
0.0167847
0.131531
0.157166
0.154724
0.0997925
0.0299072
0.0012207
0.00732422
0.0424194
0.0262451
0.017395
0.10498
0.148621
0.0485229
-0.0250244
-0.00396729
0.0296021
0.0167847
0.017395
0.000915527
-0.0286865
-0.0836182
-0.121155
-0.115051
-0.0680542
0.0448608
0.148621
0.226135
0.228271
0.202332
0.13031
0.0762939
0.0265503
-0.0170898
-0.0643921
-0.140686
-0.224609
-0.175171
-0.0772095
-0.0512695
-0.0540161
-0.0759888
-0.09552
-0.0802612
-0.0588989
-0.0323486
-0.0234985
0.00518799
0.098877
0.153809
0.16571
0.206909
0.210571
0.0485229
-0.123596
-0.172119
-0.144653
-0.149841
-0.14679
-0.0875854
-0.00854492
0.0552368
0.0524902
-0.00274658
-0.147095
-0.239258
-0.205383
-0.0836182
0.0375366
0.20874
0.365906
0.505371
0.536194
0.420227
0.365295
0.274963
0.0909424
0.0198364
0.0689697
0.10437
0.11322
0.0827026
-0.0970459
-0.240173
-0.300903
-0.32196
-0.375977
-0.39917
-0.398254
-0.333252
-0.257568
-0.0854492
0.136414
0.423279
0.560608
0.498962
0.283813
0.0582886
-0.15686
-0.325012
-0.296631
-0.279236
-0.285339
-0.351868
-0.354004
-0.364075
-0.234375
-0.151978
-0.0421143
0.0344849
0.0280762
-0.0100708
-0.0643921
-0.0808716
-0.0894165
-0.0820923
0.0189209
0.218506
0.396118
0.429993
0.345764
0.261841
0.211182
0.121765
0.0378418
-0.0445557
-0.0732422
-0.0360107
0.0424194
0.104065
0.0863647
0.0228882
0.0643921
0.145264
0.153198
0.0997925
0.0588989
0.0338745
-0.0305176
-0.125122
-0.220947
-0.286865
-0.269165
-0.20874
-0.141907
-0.130005
-0.12207
-0.14801
-0.113525
-0.106812
-0.11322
-0.0234985
0.0326538
0.0454712
0.0280762
0.0354004
0.0662231
0.085144
0.0723267
-0.0222778
-0.115356
-0.146179
-0.116272
-0.0540161
0.0363159
0.177917
0.193176
0.0930786
0.0549316
0.0961304
0.102539
0.111389
0.1474
0.153503
0.126953
0.0543213
-0.00701904
-0.0460815
-0.088501
-0.0372314
-0.00488281
0.0234985
0.0540161
0.0805664
0.0692749
0.0231934
-0.0228882
-0.0610352
-0.0720215
-0.012207
0.154114
0.293274
0.260315
0.14679
0.0286865
-0.00610352
-0.0289917
-0.0802612
-0.135803
-0.185242
-0.149841
-0.0900269
0.00701904
0.205994
0.419006
0.606384
0.627441
0.535583
0.26123
-0.0274658
-0.192871
-0.295715
-0.396423
-0.496216
-0.509338
-0.438538
-0.415955
-0.403748
-0.315247
-0.211487
-0.153809
-0.0665283
-0.0354004
-0.0326538
0.010376
0.0482178
0.115356
0.236816
0.28717
0.265808
0.241699
0.219727
0.0662231
-0.0588989
-0.0500488
0.0643921
0.193787
0.228577
0.193176
0.13092
0.0698853
0.0460815
0.0622559
0.0674438
0.0256348
-0.0244141
-0.0637817
-0.0665283
0.022583
0.0476074
-0.0509644
-0.235596
-0.336914
-0.308838
-0.303955
-0.352173
-0.400696
-0.45105
-0.448914
-0.393677
-0.321045
-0.224915
-0.120544
-0.0775146
0.00213623
0.0521851
0.0543213
0.0842285
0.13092
0.253296
0.397644
0.51239
0.544434
0.401611
0.187378
0.0579834
-0.0518799
-0.118713
-0.157776
-0.162354
-0.129395
-0.116882
-0.0915527
-0.027771
0
-0.0686646
-0.0769043
-0.0134277
-0.0140381
-0.0119019
0.00915527
-0.00946045
-0.0354004
-0.078125
-0.115051
-0.174866
-0.204163
-0.209656
-0.138245
0.022583
0.239868
0.359192
0.357971
0.314636
0.222778
0.0543213
-0.19043
-0.33783
-0.310669
-0.198059
-0.0915527
-0.020752
-0.0445557
-0.0985718
-0.0671387
0.088501
0.294189
0.40802
0.453186
0.441284
0.302734
0.151672
0.0845337
0.00183105
-0.118103
-0.183411
-0.140686
-0.107727
-0.0924683
-0.032959
-0.0271606
-0.0866699
-0.16571
-0.290833
-0.449524
-0.408936
-0.188904
0.00793457
0.10376
0.0973511
0.0289917
-0.0363159
-0.0735474
-0.0787354
-0.0958252
-0.0579834
-0.0604248
-0.0613403
-0.0546265
-0.0515747
-0.0137329
0.078125
0.183716
0.26947
0.318909
0.254211
0.19165
0.0701904
0.00610352
0.0323486
0.0540161
0.0610352
0.0289917
-0.0427246
-0.139771
-0.242004
-0.246582
-0.187683
-0.100708
0.0106812
0.0897217
0.071106
0.0808716
0.0857544
0.0448608
0.0222778
-0.0216675
-0.0869751
-0.141602
-0.1297
-0.0839233
-0.0128174
0.184631
0.387878
0.432434
0.231018
-0.0378418
-0.221252
-0.247803
-0.176392
-0.0759888
-0.108032
-0.230408
-0.262756
-0.288696
-0.240479
-0.156555
-0.0668335
-0.000915527
0.00579834
0.0680542
0.19043
0.305786
0.41748
0.497742
0.431213
0.159302
-0.0894165
-0.24353
-0.230713
-0.160828
-0.0872803
-0.0692749
-0.177307
-0.316162
-0.276184
-0.0592041
0.105896
0.0994873
0.00823975
-0.0720215
-0.103149
-0.0808716
-0.0808716
-0.113831
-0.107727
-0.0579834
0.0149536
0.0375366
0.093689
0.154724
0.189514
0.18158
0.138245
0.126343
0.114136
0.0668335
0.0088501
-0.000915527
0.0909424
0.211182
0.30426
0.314026
0.267944
0.176697
0.0616455
-0.0106812
-0.102844
-0.158386
-0.149536
-0.1474
-0.124512
-0.0491333
-0.0430298
0.0143433
0.184326
0.233459
0.124512
0.0787354
0.0164795
-0.0509644
-0.0942993
-0.0521851
0.0119019
0.108337
0.10498
-0.0378418
-0.171509
-0.236511
-0.166626
-0.0582886
0.0305176
0.0253296
0.00244141
-0.00518799
-0.0100708
0.0109863
0.0604248
0.0366211
0
-0.0512695
-0.0784302
-0.0900269
0.0119019
0.192261
0.311584
0.327759
0.247498
0.105591
0.0375366
-0.015564
-0.123901
-0.26123
-0.377808
-0.375671
-0.263977
-0.145264
-0.109253
-0.12146
-0.117188
-0.110474
-0.0790405
-0.027771
0.00457764
0.0158691
0.0372314
0.00457764
-0.043335
-0.0619507
-0.00427246
0.0814819
0.178223
0.232849
0.167847
0.0585938
-0.0320435
-0.072937
-0.0692749
-0.0396729
0.00823975
0.0485229
0.101013
0.137329
0.123901
0.14801
0.136108
0.0363159
-0.0570679
-0.116272
-0.16449
-0.19928
-0.188293
-0.131836
-0.107117
-0.0497437
-0.0198364
-0.0476074
-0.0408936
-0.038147
-0.0222778
-0.00701904
-0.0140381
-0.071106
-0.10376
-0.0109863
0.170593
0.272827
0.301514
0.281982
0.195007
0.0942993
-0.00701904
-0.0817871
-0.0979614
-0.0961304
-0.121765
-0.160217
-0.155334
-0.163269
-0.15625
-0.038147
0.0964355
0.281677
0.401611
0.429382
0.404663
0.329285
0.190125
0.0842285
-0.0198364
-0.149841
-0.178528
-0.102844
0.000305176
0.123901
0.183411
0.19165
0.259705
0.294495
0.151672
-0.0195312
-0.166321
-0.201721
-0.15686
-0.124817
-0.0454712
0.06073
0.189819
0.191345
0.0149536
-0.211487
-0.3125
-0.295715
-0.249023
-0.202637
-0.159607
-0.0653076
0.0323486
0.0949097
0.0845337
0.0476074
-0.0384521
-0.136414
-0.215149
-0.261841
-0.256958
-0.135803
-0.0289917
0.000610352
0.00213623
0.0308228
-0.00701904
-0.107727
-0.172119
-0.241089
-0.302124
-0.266724
-0.115662
-0.0192261
0.00488281
0.0439453
0.116272
0.145569
0.180359
0.114136
0.0857544
0.0900269
0.0323486
0.0378418
0.0753784
0.141907
0.200195
0.185242
0.178223
0.175476
0.107117
0.0231934
-0.0244141
-0.0378418
-0.0338745
-0.00457764
0.0469971
0.0372314
0.0128174
-0.00396729
-0.0598145
-0.0863647
-0.101624
-0.0695801
-0.0393677
0.0656128
0.223083
0.299988
0.369873
0.400085
0.240173
0.0875854
0.0125122
-0.0646973
-0.111389
-0.067749
0.00274658
-0.0302124
-0.156555
-0.207214
-0.171204
-0.108337
-0.0192261
0.108948
0.227051
0.24353
0.147095
-0.0961304
-0.413208
-0.499878
-0.398254
-0.246277
-0.0704956
0.0582886
0.137634
0.237122
0.283813
0.237732
0.143127
0.0518799
-0.015564
0.103455
0.146179
0.133667
0.132141
0.0534058
-0.0280762
-0.043335
-0.0726318
-0.0698853
0.0177002
-0.0112915
-0.179749
-0.272217
-0.226746
-0.184937
-0.159302
-0.104065
-0.065918
-0.0500488
-0.0326538
-0.0140381
-0.0305176
-0.0473022
-0.0402832
-0.0271606
-0.0466919
-0.0332642
0.0463867
0.0723267
0.104675
0.112305
0.0509644
0.108337
0.175171
0.16449
0.088501
0.00244141
-0.072937
-0.0881958
-0.0357056
-0.00152588
0.050354
0.098877
0.111084
0.0378418
-0.0119019
0.000915527
0.0900269
0.153809
0.1474
0.0421143
-0.0689697
-0.133667
-0.181885
-0.132751
-0.0360107
-0.00732422
-0.0302124
-0.124817
-0.20752
-0.252075
-0.248108
-0.21759
-0.125122
-0.0256348
0.0387573
0.0671387
0.0424194
0.0326538
0.0494385
0.0473022
0.0167847
0.00946045
0.0460815
0.151062
0.306396
0.43335
0.512085
0.525208
0.471802
0.395203
0.224609
-0.0631714
-0.369263
-0.547485
-0.553284
-0.341797
-0.00946045
0.221252
0.364075
0.43335
0.39978
0.23468
0.114746
-0.0567627
-0.327148
-0.422363
-0.417786
-0.336609
-0.214844
-0.142212
-0.138245
-0.119934
-0.140381
-0.193481
-0.203552
-0.0799561
0.0582886
0.088501
0.102539
0.0814819
0.0271606
-0.0482178
-0.119934
-0.183105
-0.168762
-0.11322
-0.0167847
0.0726318
0.118408
0.0622559
-0.00274658
-0.0198364
0.0875854
0.295105
0.510864
0.697021
0.64209
0.349731
0.103455
-0.0637817
-0.238647
-0.256653
-0.265503
-0.306396
-0.314636
-0.303345
-0.278015
-0.197754
-0.0997925
-0.00579834
-0.0338745
-0.119324
-0.209045
-0.222168
-0.212097
-0.182495
-0.15564
-0.129395
-0.131531
-0.144348
-0.109558
-0.0576782
-0.00396729
-0.00244141
0.0109863
0.0357056
0.0546265
0.109863
0.165405
0.176086
0.186768
0.159912
0.114136
0.145874
0.115662
-0.00762939
-0.12207
-0.125122
0
0.162659
0.270691
0.258179
0.230713
0.0985718
-0.15686
-0.265198
-0.149536
-0.0656128
0.00946045
0.0149536
-0.0796509
-0.157776
-0.187073
-0.186157
-0.176086
-0.133667
-0.0338745
0.0656128
0.132751
0.113525
0.0695801
0.0448608
0.0543213
0.0906372
0.117188
0.0717163
0.0460815
0.0952148
0.198059
0.342712
0.443726
0.428467
0.27832
0.0396729
-0.166931
-0.275879
-0.236511
-0.0686646
0.166931
0.340881
0.317688
0.207825
0.0671387
-0.112305
-0.178528
-0.0601196
0.0476074
0.0790405
0.0106812
-0.0842285
-0.123596
-0.118103
-0.126038
-0.107727
-0.0860596
-0.0469971
-0.0512695
0.0320435
0.185547
0.358887
0.447388
0.402832
0.365295
0.329285
0.178223
-0.0762939
-0.293579
-0.316467
-0.18158
-0.115967
-0.0616455
0.0375366
0.0875854
0.0769043
0.0549316
0.00244141
-0.131226
-0.197449
-0.151672
-0.124817
-0.110474
-0.0698853
-0.0421143
-0.0375366
-0.0747681
-0.0918579
-0.109558
-0.0808716
0.0167847
0.0994873
0.130615
0.118408
0.140076
0.145264
0.0790405
0.0631714
0.0723267
0.0964355
0.0997925
0.0619507
0.0662231
0.0546265
0.0436401
0.0167847
-0.017395
-0.0375366
-0.0405884
-0.027771
0.0192261
0.10376
0.152893
0.166321
0.207825
0.223083
0.191956
0.205994
0.202026
0.168457
0.151367
0.109863
0.0350952
-0.00213623
-0.0415039
0.0088501
0.0650024
0.0970459
0.0628662
-0.0579834
-0.155945
-0.156555
-0.122986
-0.0375366
0.038147
0.0680542
0.132751
0.273132
0.426941
0.58197
0.655212
0.459595
0.0689697
-0.137329
-0.232239
-0.305481
-0.214539
-0.0549316
-0.00457764
-0.00396729
0.133972
0.203247
0.0769043
-0.125732
-0.278931
-0.290833
-0.26886
-0.301514
-0.301514
-0.19104
-0.116882
-0.0241089
0.0268555
0.00610352
-0.0961304
-0.10498
-0.0772095
-0.103149
-0.144348
-0.126343
-0.071106
0.00457764
0.112305
0.190125
0.221863
0.174255
0.175476
0.196533
0.197754
0.187683
0.179749
0.107117
0.103455
0.0875854
-0.017395
-0.0204468
-0.0537109
-0.148621
-0.224304
-0.263062
-0.313721
-0.332336
-0.297852
-0.315552
-0.362244
-0.350647
-0.25238
-0.240479
-0.239563
-0.202332
-0.116272
-0.027771
-0.0100708
-0.0558472
-0.0979614
-0.0549316
0.0228882
0.176086
0.338135
0.448608
0.552673
0.569763
0.391541
0.166931
0.071106
-0.038147
-0.119324
-0.141296
-0.159302
-0.170898
-0.0939941
-0.0662231
-0.0769043
-0.0912476
-0.128174
-0.136108
-0.134888
-0.152893
-0.141296
-0.159912
-0.158997
-0.0341797
0.181274
0.325623
0.3479
0.204468
0.0924683
-0.0372314
-0.205994
-0.209045
-0.132751
-0.102234
-0.110168
-0.0402832
0.0546265
0.0924683
0.0570679
0.0363159
-0.0088501
-0.00793457
-0.0161743
-0.057373
-0.0427246
-0.017395
-0.0445557
-0.012207
-0.00549316
0.0738525
0.159912
0.282593
0.337219
0.282898
0.0888062
-0.112915
-0.264587
-0.194397
0.0595093
0.28717
0.38208
0.301514
0.18219
0.133972
0.0579834
-0.0540161
-0.109253
-0.0421143
-0.0283813
-0.0930786
-0.172729
-0.228882
-0.241089
-0.234985
-0.219727
-0.183411
-0.071106
0.0448608
0.112
0.202332
0.214539
0.0595093
-0.0390625
-0.0344849
0.000915527
-0.0442505
-0.0927734
-0.0509644
-0.0460815
-0.108948
-0.0735474
-0.00640869
0.012207
0.00335693
0.0369263
0.124817
0.168152
0.186462
0.19104
0.119324
0.0387573
0.0192261
-0.0515747
-0.0888062
-0.050354
0.00427246
0.0512695
0.0616455
0.0656128
0.078125
0.120239
0.133972
0.125427
0.131836
0.137329
0.0863647
0.0506592
0.0646973
0.0643921
0.0628662
0.12085
0.187073
0.215454
0.172119
0.129089
0.0494385
-0.0527954
-0.107727
-0.0320435
0.0967407
0.15564
0.182495
0.162659
0.149536
0.17395
0.168762
0.168152
0.147705
0.153198
0.0808716
0.00518799
-0.103149
-0.102844
-0.0921631
-0.142212
-0.208435
-0.222168
-0.201416
-0.125732
-0.0112915
0.0280762
0.0460815
0.057373
0.071106
0.0949097
0.0610352
-0.00701904
-0.0326538
-0.0326538
-0.0378418
-0.0100708
0.0891113
0.178833
0.227356
0.216675
0.180969
0.108643
0.0460815
-0.00396729
0.0598145
0.187378
0.285034
0.362244
0.441589
0.41626
0.32196
0.221863
0.108948
-0.0314331
-0.0946045
-0.116577
-0.158997
-0.273438
-0.361938
-0.33844
-0.316162
-0.273743
-0.211487
-0.0912476
-0.0146484
-0.0100708
-0.0259399
-0.0686646
-0.0808716
0.03479
0.126343
0.137634
-0.00457764
-0.161743
-0.201721
-0.224915
-0.238037
-0.101013
-0.0140381
0.0128174
0.0289917
0.0646973
0.0363159
0.0430298
0.0942993
0.181274
0.291748
0.397644
0.404053
0.269775
0.107727
-0.0320435
-0.106812
-0.139465
-0.159912
-0.0875854
0.0125122
0.0320435
0.0427246
0.132751
0.136108
0.245667
0.40863
0.466919
0.302429
0.067749
-0.151672
-0.264893
-0.314636
-0.34668
-0.334778
-0.32959
-0.296021
-0.220337
-0.160828
-0.101624
-0.0695801
-0.0128174
0.0183105
-0.0314331
-0.116272
-0.115967
-0.170593
-0.229492
-0.160522
-0.0192261
0.106506
0.174866
0.18158
0.13031
0
-0.100708
-0.0967407
-0.039978
-0.0442505
-0.0762939
-0.0830078
-0.123901
-0.12085
-0.0939941
-0.0952148
-0.124207
-0.0939941
-0.0881958
-0.090332
-0.0274658
0.0436401
0.0997925
0.174255
0.223083
0.246277
0.289917
0.319519
0.250244
0.0817871
-0.0732422
-0.106506
-0.0619507
0.0512695
0.212402
0.273438
0.256958
0.221252
0.0793457
-0.188599
-0.418701
-0.493469
-0.365906
-0.198059
-0.0875854
-0.0506592
-0.0366211
0.0158691
0.0289917
-0.083313
-0.128174
-0.133972
-0.179138
-0.273438
-0.315857
-0.233459
-0.0964355
0.00305176
0.0708008
0.0765991
0.123291
0.187988
0.212402
0.199585
0.125427
0.0735474
0.0241089
-0.0354004
-0.0894165
-0.149841
-0.168152
-0.0946045
-0.015564
0.020752
0.0363159
0.0668335
-0.00946045
-0.0582886
-0.0296021
0.00366211
0.0228882
0.0601196
0.0112915
-0.0152588
-0.0112915
-0.0292969
-0.0805664
-0.101624
-0.0839233
-0.0732422
-0.0784302
-0.0717163
-0.0790405
-0.0588989
-0.0744629
-0.0292969
0.115356
0.293884
0.380554
0.309753
0.256042
0.188599
0.0326538
-0.141296
-0.288391
-0.37262
-0.382385
-0.238953
0.085144
0.360413
0.445862
0.311584
0.0650024
-0.117188
-0.197449
-0.275879
-0.237122
-0.109253
0
0.0778198
0.0588989
-0.0778198
-0.191345
-0.240479
-0.235596
-0.225525
-0.218201
-0.168762
-0.0732422
0.0497437
0.237122
0.391541
0.446472
0.2948
0.0872803
-0.0390625
-0.00946045
-0.0338745
-0.159302
-0.256653
-0.217896
-0.160217
-0.139465
-0.135803
-0.146179
-0.176697
-0.189514
-0.163879
-0.126038
-0.0778198
-0.0244141
0.00183105
0.0314331
0.0430298
0.0112915
0.0012207
0.00183105
-0.00518799
-0.00793457
-0.00946045
0.0256348
0.0811768
0.0964355
0.0695801
0.0527954
0.071106
0.0549316
0.0933838
0.133667
0.159302
0.192261
0.192566
0.117798
0.00640869
-0.0421143
-0.0320435
0.0799561
0.179138
0.1828
0.146179
0.143127
0.157471
0.164185
0.134277
0.0427246
-0.125732
-0.180054
-0.0695801
0.0964355
0.201416
0.243225
0.17334
0.00946045
-0.167542
-0.322571
-0.380554
-0.391235
-0.357056
-0.258179
-0.131836
-0.0158691
0.038147
0.0961304
0.0982666
0.0549316
0.190735
0.407104
0.49469
0.395203
0.258484
0.039978
-0.0778198
-0.122681
-0.13916
-0.191956
-0.235596
-0.261841
-0.263367
-0.205688
-0.149231
-0.0860596
-0.0201416
0.0485229
0.0939941
0.109253
0.0857544
-0.0149536
-0.118103
-0.162048
-0.146484
-0.0534058
0.0564575
0.0427246
0.0112915
0.0479126
-0.06073
-0.088501
0.0854492
0.253601
0.354309
0.400391
0.379944
0.316467
0.18158
0.00579834
-0.12146
-0.167847
-0.207825
-0.188599
-0.15625
-0.180664
-0.171814
-0.0524902
0.129089
0.271912
0.404663
0.469666
0.40741
0.130615
-0.078125
-0.0772095
-0.0967407
-0.113525
-0.078125
-0.0192261
0.00488281
0.00366211
-0.020752
-0.0650024
-0.0839233
-0.0720215
-0.0308228
0.0540161
0.0643921
0.0442505
0.0561523
0.0924683
0.187988
0.33783
0.443115
0.345154
0.227356
0.13855
0.0662231
0.0460815
0.0198364
-0.0424194
-0.0897217
0
0.0494385
0.0671387
0.0637817
0.112
0.0918579
0.0302124
-0.0759888
-0.155945
-0.132446
-0.0784302
-0.0125122
0.114136
0.114136
0
-0.057373
-0.10437
-0.177002
-0.185852
-0.104675
-0.0592041
0
0.0332642
0.0198364
-0.0665283
-0.107727
-0.174866
-0.201721
-0.194092
-0.179749
-0.126038
-0.111084
-0.120239
-0.149231
-0.119019
-0.027771
0.0714111
0.192566
0.361328
0.487976
0.497742
0.392761
0.237427
0.0418091
-0.0961304
-0.161133
-0.10376
-0.0454712
-0.0558472
-0.114136
-0.128174
-0.135193
-0.180664
-0.203552
-0.211792
-0.198059
0.0140381
0.193481
0.271912
0.32959
0.312805
0.159607
0.0189209
-0.0512695
-0.0714111
-0.123291
-0.124512
-0.00396729
0.0665283
0.108337
0.186768
0.249939
0.21698
0.0570679
-0.13031
-0.314026
-0.448303
-0.452881
-0.426636
-0.377197
-0.309753
-0.192871
-0.109863
-0.0274658
0.00579834
0.0448608
0.0656128
0.0524902
0.0088501
-0.0457764
-0.0897217
-0.0424194
0.00152588
0.0527954
0.127869
0.175476
0.100708
-0.0894165
-0.172729
-0.143433
-0.0692749
0.0640869
0.259705
0.499573
0.613708
0.570679
0.37323
0.121155
-0.0909424
-0.119629
-0.0512695
-0.00854492
-0.0588989
-0.112305
-0.192566
-0.204163
-0.177002
-0.151062
-0.118103
-0.0698853
-0.0296021
-0.0579834
-0.192261
-0.293579
-0.357666
-0.420227
-0.453186
-0.422668
-0.181274
0.150146
0.449829
0.641174
0.601807
0.496826
0.400085
0.294189
0.185242
0.110168
0.0180054
-0.0228882
-0.0537109
-0.0979614
-0.125732
-0.137024
-0.140991
-0.137329
-0.151367
-0.129089
-0.117188
-0.0869751
-0.0320435
0.0576782
0.149536
0.19165
0.165405
0.12085
0.100403
0.0680542
0.0296021
0.0204468
0.0439453
0.0354004
0.00579834
0.000305176
0.0241089
0.0735474
0.215759
0.230103
0.242615
0.155945
0.00854492
-0.109253
-0.117493
-0.0354004
-0.0387573
-0.0439453
-0.0582886
-0.0802612
-0.144653
-0.141602
-0.0772095
-0.0527954
-0.0341797
-0.0125122
-0.0247192
-0.0219727
0.0531006
0.12146
0.0881958
0.0283813
-0.0283813
-0.0302124
-0.017395
0.104675
0.326843
0.557556
0.631714
0.433655
0.195618
0.0228882
-0.0842285
-0.242615
-0.295715
-0.293579
-0.31311
-0.209656
-0.0582886
-0.062561
-0.0430298
0.0299072
0.0378418
0.115051
0.221863
0.261841
0.310364
0.25116
0.0241089
-0.280762
-0.368652
-0.31311
-0.185852
-0.0500488
-0.00610352
0.0115967
0.0570679
0.118408
0.119019
0.117188
0.133667
0.0622559
-0.0213623
-0.170288
-0.320435
-0.33905
-0.286865
-0.263367
-0.153809
0.00183105
0.118408
0.106201
0.0119019
-0.0552368
-0.0915527
-0.108643
-0.184631
-0.170593
-0.00640869
0.0723267
0.176697
0.180054
0.115662
0.0595093
0.0131226
-0.0201416
0.00152588
0.0396729
0.0509644
0.0219727
0.00213623
0.050354
0.0814819
0.0946045
0.108643
0.165405
0.201416
0.209961
0.189819
0.101318
-0.106506
-0.193176
-0.180359
-0.140381
-0.0863647
0.0189209
0.0872803
0.162964
0.258179
0.322571
0.332031
0.296326
0.297241
0.227356
0.072937
0.0613403
0.0961304
0.0289917
-0.100098
-0.215759
-0.342712
-0.40741
-0.342712
-0.258789
-0.207214
-0.153198
-0.0881958
-0.0726318
-0.102844
-0.122986
-0.00640869
0.187378
0.260315
0.229797
0.161133
0.0830078
-0.00610352
-0.137329
-0.202942
-0.235596
-0.273132
-0.222168
-0.0640869
0.121155
0.238953
0.355835
0.408936
0.362549
0.269165
0.116882
0.0158691
-0.00274658
0.0375366
0.16571
0.296936
0.404358
0.428467
0.426331
0.233765
-0.0369263
-0.270691
-0.375671
-0.401001
-0.370178
-0.316772
-0.266418
-0.201416
-0.171814
-0.170593
-0.140686
-0.152893
-0.135803
-0.137939
-0.261841
-0.317993
-0.309448
-0.26947
-0.184631
-0.119324
-0.0692749
-0.0332642
0.0112915
0.0714111
0.118713
0.129395
0.145264
0.128479
0.0973511
0.0949097
0.117798
0.0906372
0.00183105
-0.0964355
-0.166626
-0.1474
-0.117188
-0.0610352
0.020752
0.0228882
0.0109863
0.00213623
-0.0283813
-0.0210571
0.00610352
-0.0228882
-0.0622559
-0.0494385
0.000305176
0.00946045
0.0350952
0.0997925
0.109558
0.0576782
0.0567627
0.0784302
0.119019
0.156555
0.18219
0.151978
0.06073
0.0369263
0.093689
0.223083
0.367126
0.40741
0.386658
0.306396
0.176697
0.0253296
-0.0952148
-0.227356
-0.300293
-0.333557
-0.368958
-0.350342
-0.328979
-0.247803
-0.213013
-0.200195
-0.138245
-0.0842285
-0.0402832
-0.0549316
-0.126953
-0.170898
-0.139771
-0.120239
-0.0802612
-0.050354
-0.0125122
-0.0296021
-0.132446
-0.221252
-0.244446
-0.105896
0.0735474
0.186462
0.198975
0.176697
0.109558
-0.0402832
-0.0869751
-0.0445557
-0.0283813
-0.0354004
0.0430298
0.0744629
0.0595093
0.0390625
0.0241089
0.0827026
0.19043
0.222473
0.203247
0.131226
0.0900269
0.0762939
0.0442505
0.00244141
0.000305176
-0.0112915
0.0289917
0.146179
0.213318
0.0854492
-0.114746
-0.258484
-0.298157
-0.367126
-0.424194
-0.365601
-0.249939
-0.161133
-0.136108
-0.118713
-0.11261
-0.11261
-0.112915
-0.0946045
-0.0616455
-0.0567627
-0.0637817
-0.0601196
-0.0570679
-0.0662231
-0.0582886
-0.0125122
0.0363159
0.0582886
0.100403
0.133057
0.0970459
0.0289917
0.00396729
0.0567627
0.1474
0.16571
0.141907
0.151062
0.183411
0.215759
0.198364
0.143127
0.11261
0.166931
0.18219
0.145264
0.0967407
0.0674438
0.0222778
-0.0323486
-0.0515747
-0.00274658
0.0466919
0.0314331
-0.0152588
-0.0378418
-0.0323486
-0.039978
-0.0335693
-0.0204468
-0.00793457
0.027771
0.0848389
0.174866
0.274658
0.368347
0.513611
0.466614
0.249329
0.106201
0.124207
0.0119019
-0.185242
-0.295105
-0.278931
-0.26886
-0.276184
-0.239258
-0.177002
-0.118103
-0.0753784
-0.0558472
-0.0964355
-0.110779
-0.113831
-0.117493
-0.102844
-0.072937
-0.0100708
0.0457764
0.123291
0.134888
0.0991821
0.12207
0.101318
0.0500488
0.0515747
0.245056
0.3479
0.241699
0.0762939
0.137634
0.185242
0.145569
0.00915527
-0.114136
-0.190735
-0.227966
-0.249023
-0.274658
-0.273438
-0.239258
-0.207214
-0.152893
-0.103149
-0.0564575
-0.0256348
-0.00854492
-0.0210571
-0.0543213
-0.0881958
-0.0662231
0.0317383
0.0302124
-0.022583
-0.0442505
-0.0378418
-0.0354004
-0.0946045
-0.101624
-0.0488281
0.00457764
0.0421143
0.0692749
0.0875854
0.0549316
0.0308228
0.00335693
-0.0357056
-0.0479126
-0.0488281
-0.03479
-0.0457764
-0.0534058
-0.0540161
-0.0372314
-0.0137329
-0.00946045
-0.00213623
-0.0125122
-0.00335693
-0.00488281
-0.0280762
-0.0128174
0.00335693
-0.0012207
-0.0134277
0.00396729
0.0424194
0.0360107
0.0460815
0.0805664
0.108032
0.0933838
0.0839233
0.101013
0.071106
0.0762939
0.108337
0.133362
0.115051
0.0762939
0.0479126
0.03479
-0.0253296
-0.06073
-0.0137329
-0.0280762
-0.00793457
0.0888062
0.196228
0.162354
0.132141
0.132446
0.152893
0.131531
0.0933838
0.0289917
-0.0192261
-0.0106812
0.0210571
0.00457764
0.015564
0.0802612
0.202332
0.409241
0.525818
0.541077
0.420227
0.277405
0.150757
-0.06073
-0.207214
-0.284119
-0.271301
-0.203552
-0.0881958
-0.10437
-0.257874
-0.328064
-0.291748
-0.183716
-0.085144
0.0106812
0.155029
0.2771
0.302124
0.243225
0.121155
-0.0521851
-0.206604
-0.237427
-0.183105
-0.0973511
-0.0891113
-0.10376
-0.111389
-0.118408
-0.0964355
-0.0708008
-0.0570679
-0.0143433
0.0479126
0.0918579
0.0872803
0.0576782
-0.0106812
-0.0949097
-0.151367
-0.166321
-0.149231
-0.0518799
0.0823975
0.153198
0.184021
0.131836
0.0939941
0.107422
0.102844
0.150452
0.148926
0.0912476
0.0506592
0.0247192
0.0183105
0.0192261
0.0234985
-0.00457764
-0.067749
-0.116272
-0.151367
-0.140076
-0.111084
-0.0552368
-0.00274658
0.0088501
0.012207
0.027771
-0.0650024
-0.120239
-0.107727
-0.109863
-0.0180054
0.2005
0.384827
0.429077
0.366211
0.218201
0.038147
-0.00671387
0.0253296
0.0579834
0.133667
0.273132
0.321655
0.270691
0.148621
0.0561523
-0.0253296
-0.107727
-0.119019
-0.139465
-0.180054
-0.143127
-0.062561
-0.0827026
-0.218201
-0.39856
-0.370178
-0.1297
0.109253
0.176697
0.132446
-0.0271606
-0.21759
-0.360107
-0.396423
-0.352478
-0.211792
-0.0588989
0.0234985
0.0302124
0.00427246
-0.0201416
0.0488281
0.191956
0.368652
0.511475
0.532227
0.400085
0.209656
-0.0527954
-0.2771
-0.350342
-0.33783
-0.242615
-0.0534058
0.148315
0.343933
0.436401
0.328369
0.137329
-0.0427246
-0.159607
-0.183716
-0.143127
-0.113525
-0.0994873
-0.0942993
-0.159607
-0.235596
-0.255737
-0.264893
-0.233154
-0.195923
-0.162354
-0.149536
-0.212708
-0.218506
-0.0509644
0.178833
0.32135
0.353394
0.251465
0.083313
-0.0479126
-0.124207
-0.133972
-0.0717163
0.0610352
0.175476
0.228577
0.241089
0.254517
0.230408
0.176697
0.101318
0.0839233
0.135498
0.157471
0.126343
0.0845337
0.0457764
-0.0326538
-0.0927734
-0.175171
-0.183411
-0.146179
-0.0515747
0.114441
0.256042
0.336914
0.403748
0.257263
0.0650024
-0.105591
-0.18219
-0.267639
-0.144348
0.083313
0.248108
0.222168
0.11322
0.0497437
0.0619507
0.0692749
0.0747681
0.0479126
-0.0430298
-0.258484
-0.478516
-0.473633
-0.354004
-0.26825
-0.188904
-0.110779
-0.154114
-0.220642
-0.230103
-0.204773
-0.119629
-0.00946045
-0.0088501
-0.0100708
0.00701904
0.0634766
0.180969
0.248108
0.34729
0.513611
0.561829
0.415955
0.252075
0.0976562
-0.140991
-0.301819
-0.305176
-0.256653
-0.269775
-0.296936
-0.196838
-0.055542
0.0350952
0.0384521
0.0106812
-0.0317383
-0.0576782
-0.0305176
0.0512695
0.135803
0.223999
0.289917
0.253601
0.175476
0.103149
-0.00579834
-0.0500488
0.0186157
0.154114
0.322266
0.466919
0.513
0.433044
0.30426
0.106812
-0.132141
-0.28717
-0.359497
-0.359802
-0.291748
-0.218201
-0.109863
-0.020752
-0.022583
-0.0842285
-0.150146
-0.0778198
0.0900269
0.303955
0.511169
0.477295
0.130005
-0.158386
-0.26825
-0.342102
-0.290833
-0.150757
0.0387573
0.100098
0.151978
0.163269
0.0723267
-0.0100708
-0.109253
-0.179749
-0.204773
-0.300598
-0.24292
0.0244141
0.239563
0.411682
0.536804
0.476074
0.298157
0.288086
0.192261
-0.0918579
-0.419006
-0.505981
-0.346375
-0.224915
-0.132446
-0.0372314
-0.134583
-0.409851
-0.488586
-0.298157
-0.105286
0.0445557
0.146179
0.179443
0.1474
0.0662231
0.0411987
0.0338745
-0.0234985
-0.0305176
-0.071106
-0.129395
-0.115051
-0.0949097
-0.113831
-0.167236
-0.219421
-0.247498
-0.293579
-0.293274
-0.113525
0
0.10498
0.18158
0.153198
0.268555
0.426941
0.448914
0.370483
0.202942
0.123901
0.0698853
-0.0360107
-0.150452
-0.128479
0.038147
0.139465
0.166321
0.251465
0.304565
0.0527954
-0.0488281
0.0927734
0.228577
0.310059
0.100708
-0.1828
-0.435486
-0.471802
-0.422668
-0.299377
-0.201111
-0.0305176
0.155029
0.272522
0.345459
0.2948
0.238953
0.274658
0.447388
0.521545
0.35675
0.0238037
-0.19043
-0.235291
-0.198364
-0.244141
-0.365906
-0.390015
-0.428162
-0.45929
-0.437012
-0.382385
-0.276489
-0.194397
-0.24353
-0.289001
-0.3125
-0.271301
-0.0631714
0.0735474
0.145569
0.201721
0.203552
0.155029
0.0213623
-0.149536
-0.275574
-0.310059
-0.145264
0.0180054
0.0402832
0.0186157
0
0.0491333
0.206604
0.384216
0.492249
0.549316
0.498962
0.310364
0.0759888
-0.136414
-0.345154
-0.309753
-0.201111
-0.14801
-0.123596
-0.0695801
-0.0296021
-0.0778198
-0.172424
-0.261536
-0.275269
-0.179749
-0.00335693
0.158081
0.290222
0.370483
0.315857
0.304565
0.272522
0.343933
0.409546
0.384827
0.290833
0.0967407
-0.212097
-0.304871
-0.0708008
0.0143433
-0.0808716
-0.215454
-0.238953
-0.191345
-0.185547
-0.140991
-0.127869
-0.199585
-0.245361
-0.231018
-0.267334
-0.324097
-0.336609
-0.25177
-0.0183105
0.134888
0.183411
0.204468
0.28717
0.350952
0.266724
0.105896
-0.0314331
-0.0704956
-0.0646973
-0.139771
-0.188599
-0.131531
-0.0469971
0.114441
0.254822
0.347595
0.340271
0.220032
0.0900269
0.253601
0.35675
0.232849
-0.0134277
-0.122986
-0.0881958
-0.105591
-0.11322
-0.126648
-0.206604
-0.33783
-0.449524
-0.475769
-0.419922
-0.342712
-0.213013
-0.161133
-0.15686
-0.0958252
-0.0274658
-0.0473022
-0.078125
-0.0958252
-0.12146
-0.0775146
0.0448608
0.180664
0.274658
0.274658
0.146484
0.0289917
-0.0286865
-0.0897217
-0.101318
-0.154114
-0.139465
-0.0982666
-0.118713
-0.0552368
0.0750732
0.370789
0.697327
0.810852
0.70282
0.46814
0.149231
-0.0518799
-0.0439453
0.0231934
0.0378418
-0.0216675
-0.0817871
-0.114441
-0.098877
-0.0732422
-0.0750732
-0.0219727
0.0180054
-0.0201416
-0.083313
-0.177307
-0.238037
-0.194397
-0.0723267
0.161133
0.376282
0.4776
0.495911
0.483398
0.421448
0.406189
0.372009
0.148926
-0.0778198
-0.226135
-0.318909
-0.408936
-0.345154
-0.144348
-0.0201416
-0.114441
-0.217896
-0.2771
-0.310364
-0.274963
-0.2771
-0.271301
-0.215759
-0.19989
-0.133972
-0.00793457
0.0997925
0.239563
0.232239
0.0274658
-0.0192261
0.204773
0.444641
0.777283
0.818481
0.46814
0.0933838
-0.104675
-0.175476
-0.177612
-0.188599
-0.226135
-0.242004
-0.240479
-0.206604
-0.154114
-0.137939
-0.135498
-0.102234
-0.00427246
0.144958
0.189209
0.159912
0.0485229
-0.118103
-0.218811
-0.198975
-0.156555
-0.0909424
-0.0296021
-0.0131226
0
0.038147
0.0613403
0.211487
0.345764
0.364075
0.2771
0.0411987
-0.287781
-0.282288
-0.110779
0.0106812
0.0653076
0.0836182
0.027771
-0.0604248
-0.0900269
-0.0631714
0.0973511
0.145264
0.100403
0.112
0.118103
0.0888062
0.0848389
0.111084
0.100403
0.0823975
0.0460815
0.0289917
-0.0183105
-0.113831
-0.237427
-0.342102
-0.187683
0.0692749
0.212097
0.109558
-0.0189209
0
0.110779
0.245361
0.275269
0.19043
0.0579834
-0.00457764
0.00946045
0.110474
0.285645
0.365906
0.379944
0.394592
0.43396
0.368958
0.236511
0.121765
0.0784302
0.0485229
-0.0741577
-0.256348
-0.298157
-0.229492
-0.233765
-0.0646973
0.162354
0.267334
0.254211
0.148621
0.010376
-0.0537109
0.0164795
0.168152
0.310974
0.380554
0.377502
0.155334
0.0234985
0.0784302
0.0302124
-0.0125122
-0.00701904
-0.126038
-0.131531
-0.127563
-0.151672
-0.238342
-0.368042
-0.388184
-0.258484
-0.108337
-0.00976562
0.0378418
0.0653076
0.0497437
-0.0338745
-0.125122
-0.228577
-0.161438
-0.00823975
0.165405
0.338745
0.551453
0.657654
0.560608
0.366821
0.201111
0.167847
0.116272
0.0515747
-0.00579834
-0.0558472
-0.0964355
-0.0604248
-0.0796509
-0.19165
-0.269165
-0.318298
-0.294495
-0.26886
-0.245667
-0.14679
0.0177002
0.133057
0.151367
0.132446
0.0811768
0.0747681
0.101013
0.0497437
0.0683594
0.162659
0.262146
0.361633
0.436401
0.28656
0.00457764
-0.188293
-0.344849
-0.447388
-0.439453
-0.309753
-0.329285
-0.274353
-0.0793457
0.0674438
0.140076
0.144348
0.127563
0.098877
0.0549316
0.0393677
0.0088501
-0.00610352
0.000305176
0.0149536
-0.0296021
0.00396729
0.0753784
0.0662231
0.043335
0.202942
0.452271
0.710754
0.796814
0.697327
0.384216
-0.0189209
-0.320129
-0.37384
-0.236816
-0.0888062
-0.039978
-0.0656128
-0.0656128
-0.0720215
-0.0854492
-0.163879
-0.249329
-0.336914
-0.420227
-0.398254
-0.33905
-0.213013
-0.0827026
-0.0640869
-0.0500488
-0.0540161
-0.0735474
-0.06073
-0.0765991
-0.105286
-0.152588
-0.221252
-0.1828
-0.0613403
0.062561
0.0778198
0.0622559
-0.0167847
-0.0738525
-0.0839233
-0.0839233
-0.0701904
-0.0643921
-0.0521851
-0.00396729
0.0308228
0.0415039
0.015564
-0.0338745
0.0146484
0.10376
0.106812
0.0863647
0.0170898
-0.0689697
-0.101318
-0.109558
-0.123596
-0.108337
-0.0802612
0.0344849
0.212097
0.309143
0.326233
0.352478
0.282288
0.13092
-0.055542
-0.166321
-0.223694
-0.19989
-0.151672
-0.127258
-0.0561523
0.141602
0.359802
0.504456
0.566711
0.414429
0.114441
-0.124817
-0.226135
-0.185242
-0.120544
-0.0744629
-0.0134277
-0.00366211
0.00305176
0.0466919
0.0915527
0.0473022
-0.142517
-0.193481
-0.111694
-0.027771
0.00671387
-0.090332
-0.177307
-0.219116
-0.235291
-0.240173
-0.205078
-0.20813
-0.210571
-0.2005
-0.154114
-0.0881958
-0.105286
-0.146179
-0.172119
-0.133057
0.000915527
0.13092
0.115967
0.0668335
0.09552
0.257568
0.544434
0.671692
0.538635
0.151367
-0.162354
-0.357056
-0.385132
-0.200806
-0.258484
-0.462952
-0.437012
-0.275574
-0.170593
-0.137329
-0.154419
-0.153198
-0.178223
-0.196838
-0.160217
-0.0537109
0.0189209
0.071106
0.0643921
0.0259399
-0.0344849
-0.0280762
-0.0271606
-0.0808716
-0.0909424
-0.0354004
0.0131226
0.0137329
-0.0244141
-0.065918
-0.0491333
-0.0271606
0.0164795
-0.0125122
0.00701904
0.0915527
0.0970459
0.130615
0.153503
0.20874
0.280151
0.323486
0.22583
0.1297
0.144043
0.118713
0.203552
0.313721
0.207825
0.0506592
-0.101318
-0.231628
-0.338745
-0.320129
-0.262756
-0.207825
-0.111389
-0.0415039
-0.0219727
-0.010376
0.116577
0.289307
0.363159
0.405273
0.393982
0.250244
0.122375
0.118408
0.113525
-0.032959
-0.0796509
-0.0759888
-0.209045
-0.187988
-0.00610352
0.0363159
-0.0311279
-0.104065
-0.0592041
0.015564
0.197754
0.162048
-0.0128174
-0.124207
-0.205688
-0.220947
-0.196228
-0.134583
0.0112915
0.185242
0.372314
0.375977
0.213013
-0.083313
-0.219727
-0.144348
-0.101318
-0.154419
-0.287781
-0.434265
-0.438232
-0.332336
-0.170593
-0.0323486
0.0964355
0.186462
0.111694
0.00183105
-0.0979614
-0.109558
-0.0402832
0.0259399
0.0320435
0.0427246
0.0448608
-0.020752
-0.102539
-0.0372314
0.0314331
0.142822
0.242004
0.308228
0.340881
0.25116
0.0991821
0.0680542
0.0830078
0.143738
0.123901
0.0149536
0.0201416
0.0805664
0.12146
0.103149
0.0497437
-0.00152588
-0.0445557
-0.015564
0.124817
0.3479
0.516663
0.513
0.324402
0.118103
0.101318
0.197754
0.361023
0.311584
0.0723267
-0.118408
-0.182495
-0.170898
-0.0839233
-0.0616455
0.0494385
0.2948
0.378723
0.526428
0.436707
-0.22522
-1.02356
-1.06476
-0.805359
-0.420837
-0.27771
-0.30365
-0.13092
0.0717163
0.168762
0.200195
0.21759
0.148926
0.0518799
0.0561523
0.155945
0.277405
0.263367
0.0219727
-0.199585
-0.270386
-0.253296
-0.2005
-0.139771
-0.144958
-0.140686
-0.0820923
-0.0204468
0.0561523
0.0494385
0.0262451
0.0372314
-0.020752
-0.0259399
0.0244141
-0.0231934
-0.14679
-0.177307
-0.170898
-0.158081
-0.151062
-0.142517
-0.104675
-0.0402832
0.0271606
0.0674438
0.0524902
0.0662231
0.0537109
-0.0106812
-0.0482178
-0.00152588
0.043335
0.116272
0.180054
0.233154
0.308838
0.310974
0.215149
0.115967
0.108643
0.220947
0.377808
0.492249
0.371094
0.0723267
-0.162048
-0.227661
-0.201111
-0.157166
-0.116882
-0.0302124
0.104065
0.159912
0.110168
0.131836
0.17395
0.19989
0.150452
0.0274658
-0.136108
-0.163574
-0.0769043
0.0778198
0.273132
0.325012
0.166626
-0.0662231
-0.143738
-0.200195
-0.238037
-0.351257
-0.602112
-0.696411
-0.570374
-0.320435
-0.0872803
0.000915527
-0.0134277
-0.0613403
-0.104675
0.0231934
0.141602
0.172729
0.22583
0.25177
0.238647
0.219421
0.261841
0.223389
0.130005
0.00762939
-0.0387573
-0.0756836
-0.109863
-0.13092
-0.106812
-0.0979614
-0.114441
-0.0448608
0.0463867
0.0839233
0.0775146
0.0415039
0.0244141
0.0216675
0.000915527
-0.00152588
0.00732422
0.000610352
-0.0323486
-0.072937
-0.0271606
0.0332642
0.0552368
0.162964
0.33905
0.523071
0.702209
0.657959
0.467834
0.390625
0.361023
0.321655
0.110474
-0.13092
-0.350342
-0.396423
-0.336914
-0.269775
-0.291748
-0.266418
-0.264282
-0.275879
-0.270386
-0.267334
-0.238953
-0.113831
-0.0357056
-0.0137329
-0.0222778
-0.0222778
-0.0164795
-0.0326538
0.0363159
0.163574
0.241089
0.258179
0.231323
0.136108
0.0149536
-0.0930786
-0.119629
-0.0979614
-0.0668335
-0.057373
-0.0479126
0.0292969
0.135193
0.144958
0.174866
0.195618
0.0827026
-0.0241089
-0.0897217
-0.0170898
0.145569
0.166626
0.152893
0.0302124
-0.102234
-0.230408
-0.195312
-0.146484
-0.102539
-0.0158691
0.0631714
0.045166
-0.0088501
-0.0515747
-0.0393677
-0.0408936
-0.0424194
-0.015564
0.0622559
0.093689
0.105591
0.134583
0.158081
0.134277
0.127563
0.123291
0.0744629
0.126953
0.202332
0.200806
0.125122
0.0997925
0.0863647
0.0857544
0.0967407
0.0765991
0.000915527
0.000915527
0.0863647
0.0881958
0.0280762
-0.0296021
-0.083313
-0.261841
-0.447083
-0.521545
-0.350647
-0.0332642
0.196533
0.211792
0.159607
0.0918579
-0.0509644
-0.139771
-0.121155
-0.0808716
-0.045166
-0.0692749
-0.0946045
-0.168762
-0.23468
-0.287781
-0.278931
-0.243225
-0.154114
-0.0335693
0.0473022
0.039978
0.0146484
0.0234985
0.110168
0.179138
0.206299
0.20874
0.168152
0.0656128
-0.0454712
-0.144348
-0.1651
-0.107727
-0.0793457
-0.0405884
0.00274658
0
-0.032959
-0.0598145
-0.0769043
-0.0753784
-0.0613403
-0.017395
0.0836182
0.155945
0.145569
0.10498
0.0726318
0.0274658
-0.0164795
-0.0857544
-0.176086
-0.19165
-0.201111
-0.202637
-0.148315
0.0271606
0.160828
0.122986
0.0823975
0.101929
0.0921631
0.191345
0.321655
0.388184
0.38147
0.289307
0.135498
0.0402832
0.0750732
0.124817
0.194702
0.230713
0.171204
0.0210571
-0.0674438
-0.0543213
-0.0570679
0.00823975
0.149231
0.240173
0.189514
-0.0881958
-0.427856
-0.503235
-0.382996
-0.285034
-0.276184
-0.26001
-0.227661
-0.205078
-0.154114
-0.19989
-0.19928
-0.122986
-0.00640869
0.062561
0.0344849
-0.0616455
-0.201721
-0.245361
-0.20813
-0.165405
-0.132751
-0.0845337
-0.0595093
-0.0570679
-0.0320435
0
0.0601196
0.0918579
0.0656128
0.0390625
0.0262451
0.0482178
0.0582886
0.0405884
0.0299072
0.0305176
0.0320435
0.0546265
0.105896
0.128784
0.109863
0.0701904
0.0967407
0.1828
0.177612
0.14679
0.147705
0.235291
0.359192
0.50415
0.46936
0.302429
-0.00457764
-0.161133
-0.0912476
0.0360107
0.0973511
0.0128174
-0.0982666
-0.14679
-0.0558472
0.0656128
0.0775146
0.0253296
-0.103455
-0.30426
-0.327759
-0.196533
-0.105591
-0.0192261
0.0552368
0.161743
0.252686
0.219116
0.24353
0.206909
0.0595093
-0.0222778
-0.0805664
-0.0439453
-0.0469971
-0.0930786
-0.125732
-0.129089
0.00732422
0.267334
0.354309
0.27832
-0.00915527
-0.308533
-0.330811
-0.213623
-0.227356
-0.139465
-0.19989
-0.23468
-0.155334
-0.158997
-0.220032
-0.259094
-0.266418
-0.283203
-0.275574
-0.23468
-0.282288
-0.19989
-0.0674438
0.0405884
0.0418091
-0.0131226
-0.06073
-0.0714111
-0.0778198
-0.072937
-0.0308228
0.0521851
0.154114
0.158386
0.147095
0.132446
0.0668335
0.0613403
0.158081
0.228577
0.206604
0.103455
-0.000915527
-0.0671387
-0.111084
-0.116577
-0.108337
-0.0961304
-0.0820923
-0.0100708
0.186768
0.408936
0.52948
0.479431
0.444946
0.365906
0.123901
-0.0982666
-0.182495
-0.194092
-0.158997
-0.0527954
0.0244141
-0.0485229
-0.120239
-0.127258
-0.140686
-0.104675
-0.0759888
-0.00213623
0.0302124
0.0570679
0.132446
0.137939
0.00640869
-0.18158
-0.266724
-0.301208
-0.317383
-0.216675
-0.122986
-0.127869
-0.135498
-0.125732
-0.157776
-0.240479
-0.203857
-0.0759888
0.022583
0.0482178
0.124817
0.259705
0.309448
0.370789
0.447083
0.420837
0.256653
0.174866
0.163879
0.223389
0.248718
0.172729
0.00152588
-0.200195
-0.340576
-0.315857
-0.168762
0.0192261
0.168152
0.192261
0.132751
0.0531006
0.0793457
0.184631
0.325928
0.419006
0.463867
0.434875
0.319519
0.151672
-0.0283813
-0.12085
-0.128479
-0.145874
-0.231934
-0.360413
-0.351868
-0.289001
-0.288696
-0.285339
-0.231018
-0.150452
-0.14801
-0.220642
-0.296021
-0.383911
-0.401917
-0.360718
-0.198364
0.0762939
0.317078
0.401917
0.328979
0.25116
0.204468
0.158081
0.155945
0.126953
0.0186157
-0.0689697
-0.0622559
-0.0686646
-0.103149
-0.167847
-0.202026
-0.13031
-0.0241089
0.13916
0.200195
0.138245
0.0244141
-0.00946045
0.00244141
0.039978
0.120544
0.161438
0.108643
0.0912476
0.190125
0.256348
0.298462
0.241699
0.0985718
0.0622559
0.133667
0.151062
0.111694
0.045166
-0.0592041
-0.184631
-0.279541
-0.324707
-0.328369
-0.278015
-0.193176
-0.100708
-0.0436401
-0.015564
-0.022583
-0.0234985
-0.0354004
-0.0576782
-0.0427246
-0.0234985
-0.0125122
0
0.0271606
0.0598145
0.101624
0.1651
0.270081
0.293884
0.241089
0.0317383
-0.162659
-0.159302
-0.0341797
0.122681
0.103455
0.0350952
0.0149536
-0.0152588
-0.0524902
-0.0823975
-0.110168
-0.104065
-0.0811768
-0.0552368
-0.0137329
0.00427246
0.0112915
-0.00518799
-0.020752
-0.00152588
0.00549316
0
-0.0213623
-0.0289917
-0.0308228
-0.0128174
0.0588989
0.119934
0.153503
0.226746
0.250549
0.219727
0.257874
0.365601
0.355225
0.26825
0.213013
0.174866
0.1474
0.119324
0.171509
0.233765
0.132751
-0.0286865
-0.140076
-0.306091
-0.39978
-0.393982
-0.366821
-0.379944
-0.392151
-0.378723
-0.318298
-0.250549
-0.143127
-0.0668335
-0.0119019
-0.078125
-0.215454
-0.235596
-0.129089
0.0466919
0.2948
0.448914
0.348816
0.153503
-0.00823975
-0.0231934
-0.0296021
-0.101624
-0.140686
-0.083313
-0.0701904
-0.0476074
0.0680542
0.168152
0.207214
0.310364
0.32135
0.235291
0.15686
0.0616455
-0.0457764
-0.0942993
-0.129395
-0.134583
-0.140686
-0.125122
-0.105896
-0.0982666
-0.101624
-0.0613403
0.00488281
0.0662231
0.0921631
0.0814819
0.0857544
0.113831
0.117188
0.115051
0.134277
0.180664
0.194092
0.148621
0.0341797
-0.0741577
-0.0939941
-0.00152588
0.132141
0.135193
-0.0769043
-0.264587
-0.33905
-0.306702
-0.154724
0
0.111084
0.143738
0.111389
-0.00488281
-0.0180054
0.0222778
0.0360107
0.098877
0.134583
0.123596
0.163269
0.242615
0.291138
0.179443
0.0473022
-0.0753784
-0.121765
-0.116577
-0.206604
-0.323181
-0.364685
-0.325317
-0.264587
-0.162354
-0.0918579
-0.055542
-0.0262451
0.000305176
0.065918
0.118103
0.134277
0.124817
0.0686646
-0.0195312
-0.017395
0.117188
0.189819
0.141907
0.0219727
-0.0784302
-0.126953
-0.154419
-0.169983
-0.169678
-0.125122
-0.071106
-0.0305176
0.0485229
0.0323486
0.0411987
0.0424194
0.0637817
0.0793457
0.0286865
0.00305176
0.00823975
0.0558472
0.101013
0.19165
0.280151
0.272217
0.187073
0.0582886
-0.0634766
-0.11261
-0.115662
-0.106506
-0.0457764
0.043335
0.141296
0.204468
0.196838
0.0970459
0.0363159
0.0143433
0.03479
0.0900269
0.162354
0.174255
0.083313
0.0598145
0.119324
0.196228
0.204773
0.141602
0.0143433
-0.0088501
0.102844
0.0180054
-0.179138
-0.21759
-0.182495
-0.213318
-0.244446
-0.244446
-0.245667
-0.267639
-0.255432
-0.246887
-0.234375
-0.153198
-0.13092
-0.101318
-0.0906372
-0.0634766
-0.0637817
-0.0427246
-0.0216675
-0.0305176
-0.0158691
-0.0210571
-0.00976562
0.0463867
0.0915527
0.0830078
0.0302124
-0.0366211
-0.0759888
-0.065918
-0.0476074
-0.0186157
0.0106812
0.0305176
-0.00976562
-0.0106812
0.00762939
0.0170898
0.0149536
0.0604248
0.0726318
0.0750732
0.0686646
0.0848389
0.0759888
0.0521851
0.0485229
0.057373
0.0344849
0.0192261
0.0442505
0.0518799
0.0921631
0.166626
0.292969
0.395508
0.397644
0.30304
0.16571
0.0363159
-0.0747681
-0.117493
-0.146179
-0.145569
-0.0787354
-0.0164795
0.0265503
0.0393677
0.0827026
0.149536
0.176392
0.158386
0.197754
0.192566
0.0820923
0.055542
0.138855
0.154724
0.114746
0.0778198
0.0680542
0.00457764
-0.124817
-0.254822
-0.262756
-0.232849
-0.183105
-0.112305
-0.0354004
-0.0131226
-0.0369263
0.00366211
0.0680542
0.116272
0.158691
0.195312
0.0350952
-0.149231
-0.28656
-0.378418
-0.465393
-0.452881
-0.290527
-0.122681
-0.0756836
0.00640869
0.071106
0.0341797
-0.00762939
-0.043335
-0.0354004
0.0335693
0.131836
0.167236
0.214539
0.183716
0.123291
0.0900269
0.126343
0.102539
0.0473022
0.00549316
-0.012207
-0.00518799
0.022583
0.0128174
-0.0576782
-0.143433
-0.21637
-0.228271
-0.198669
-0.142822
-0.0161743
0.012207
0.0656128
0.179138
0.292358
0.362549
0.38269
0.243835
0.0152588
-0.13031
-0.184021
-0.187378
-0.152283
-0.0793457
0.0256348
0.0695801
0.0686646
0.0906372
0.107422
-0.0119019
-0.171204
-0.232544
-0.233459
-0.189209
-0.12207
-0.0900269
-0.0402832
0.00701904
0.0500488
0.108337
0.144958
0.0836182
0.0115967
-0.0088501
-0.0628662
-0.114746
-0.126343
-0.0650024
0.0149536
0.0524902
0.0543213
0.0714111
0.174255
0.413818
0.751953
0.899658
0.758972
0.438843
0.105286
-0.140686
-0.23407
-0.211182
-0.225525
-0.202637
-0.188904
-0.21759
-0.244446
-0.276489
-0.335693
-0.308838
-0.222473
-0.157776
-0.131226
-0.0354004
-0.0576782
-0.12085
-0.118103
-0.0799561
-0.0576782
-0.062561
0.0436401
0.216064
0.409546
0.537415
0.510254
0.238953
-0.0839233
-0.258789
-0.273438
-0.259094
-0.233459
-0.274353
-0.234375
-0.167542
-0.126343
-0.0738525
-0.0195312
-0.0241089
-0.045166
-0.0445557
0.0244141
0.107117
0.155945
0.161743
0.106201
0.038147
0.00366211
-0.0323486
-0.0509644
-0.050354
-0.0585938
-0.0509644
-0.0457764
-0.050354
-0.0772095
-0.0796509
-0.0454712
-0.015564
-0.0213623
-0.0469971
-0.00762939
0.00213623
-0.015564
-0.0338745
-0.0213623
0.00183105
0.0234985
-0.00579834
0.00946045
0.06073
0.111694
0.132446
0.072937
0.0448608
0.123901
0.191345
0.227966
0.223999
0.162659
0.0973511
0.0109863
-0.0357056
-0.0595093
0.00976562
0.0506592
0.0814819
0.0796509
0.0744629
0.0769043
0.0772095
0.0683594
0.0445557
-0.0500488
-0.127869
-0.078125
0.0662231
0.186157
0.249939
0.322876
0.331726
0.218811
0.119324
0.0421143
-0.032959
-0.0704956
-0.134277
-0.245667
-0.250244
-0.210876
-0.15564
-0.0341797
0.110168
0.195007
0.218201
0.179443
0.0561523
-0.0588989
-0.105591
-0.116272
-0.150452
-0.20813
-0.278015
-0.318298
-0.297241
-0.245056
-0.215454
-0.144348
-0.102539
-0.0793457
-0.0354004
0.0112915
0
0.0506592
0.131226
0.148621
0.0790405
0.00946045
-0.0637817
-0.10376
-0.0427246
0.0704956
0.146179
0.177917
0.155945
0.0717163
-0.0482178
-0.164185
-0.249329
-0.273438
-0.220947
-0.0982666
0.0378418
0.0494385
0.0689697
0.13855
0.162964
0.0994873
0.0238037
-0.0088501
-0.043335
-0.104675
-0.105591
-0.134583
-0.180359
-0.169983
-0.117493
-0.0494385
-0.0137329
0.0515747
0.125427
0.126648
0.0582886
0.0164795
0.0241089
0.0473022
0.140686
0.274658
0.333862
0.317078
0.287476
0.204773
0.0668335
-0.0491333
-0.0598145
-0.0436401
-0.0646973
-0.0506592
0.020752
0.0579834
0.0390625
0.010376
-0.0411987
-0.126038
-0.169983
-0.120239
-0.110779
-0.107727
-0.0738525
-0.022583
0.00915527
0.0292969
-0.00823975
-0.0210571
0.00823975
0.0668335
0.138245
0.205994
0.336609
0.395813
0.316162
0.253601
0.214539
0.0387573
-0.19104
-0.256653
-0.262146
-0.238647
-0.190735
-0.174561
-0.175476
-0.176086
-0.177002
-0.158691
-0.0958252
-0.0457764
-0.0683594
-0.129395
-0.108643
-0.0469971
0.0686646
0.134583
0.141907
0.0198364
-0.157471
-0.223389
-0.179749
-0.137329
-0.0949097
-0.071106
-0.0231934
-0.0204468
-0.043335
-0.0436401
0.0146484
0.106506
0.155945
0.214844
0.256653
0.326843
0.342102
0.330505
0.265808
0.171204
0.0561523
-0.126648
-0.3302
-0.382996
-0.368652
-0.284424
-0.119934
0.0180054
0.0741577
0.0952148
0.0585938
0.0421143
-0.00488281
-0.0521851
-0.0772095
-0.032959
0.0234985
0.0698853
0.0619507
0.0558472
0.0723267
0.100098
0.151978
0.281982
0.367737
0.403748
0.398254
0.30426
0.0817871
-0.0909424
-0.176697
-0.19043
-0.206299
-0.226746
-0.149841
-0.0161743
0.00915527
0.00244141
0.0106812
0.0183105
-0.0161743
-0.0601196
-0.141602
-0.219116
-0.184326
-0.113525
-0.0814819
-0.0323486
-0.0656128
-0.158691
-0.25238
-0.276489
-0.148621
0.0311279
0.121765
0.110168
0.0662231
-0.0448608
-0.201111
-0.259399
-0.216064
-0.09552
0.027771
0.189209
0.235291
0.218811
0.240784
0.274048
0.249939
0.198669
0.120544
0.0875854
0.0741577
0.0939941
0.0180054
-0.117798
-0.135193
-0.0646973
0.0143433
0.0747681
0.00549316
-0.0900269
-0.152893
-0.150146
-0.115356
-0.119324
-0.078125
-0.045166
-0.00579834
0.0341797
0.0601196
0.0811768
0.122986
0.142517
0.0759888
0.0762939
0.0476074
-0.0744629
-0.187073
-0.218506
-0.201416
-0.156555
-0.119324
-0.0299072
0.0289917
0.0668335
0.0946045
0.0668335
-0.00244141
-0.050354
-0.117493
-0.115662
-0.0427246
-0.0213623
-0.0552368
-0.118103
-0.17395
-0.179749
-0.144043
-0.0866699
-0.050354
0.015564
0.0701904
0.0805664
0.0759888
0.0588989
0.0494385
0.0274658
-0.0186157
-0.0769043
-0.0952148
-0.0448608
-0.0296021
0.0592041
0.154114
0.166931
0.126038
0.157166
0.266113
0.360718
0.340576
0.189209
-0.020752
-0.126648
-0.166626
-0.20874
-0.220032
-0.125427
0.0744629
0.214233
0.245056
0.245972
0.272522
0.266113
0.162048
0.000305176
-0.142212
-0.220947
-0.249023
-0.262146
-0.266113
-0.224915
-0.141907
-0.0177002
0.123596
0.193787
0.192566
0.140381
0.0289917
-0.0463867
-0.0997925
-0.180054
-0.265808
-0.269775
-0.130615
0.00366211
0.0875854
0.10498
-0.062561
-0.162048
-0.124512
-0.0894165
-0.0115967
0.0564575
0.0570679
0.032959
-0.00274658
-0.0283813
-0.0405884
-0.0720215
-0.0750732
-0.0872803
-0.119019
-0.209961
-0.301819
-0.300598
-0.231628
-0.152893
-0.0106812
0.11322
0.169983
0.220032
0.237732
0.350037
0.402527
0.324707
0.238342
0.103149
-0.0256348
-0.0448608
-0.0308228
0.0088501
0.0698853
0.141602
0.137024
0.109558
0.113831
0.124512
0.0982666
-0.0146484
-0.136108
-0.166931
-0.189209
-0.174255
-0.0195312
0.165405
0.215454
0.171814
0.090332
0.108032
0.202637
0.309143
0.366516
0.311584
0.139771
-0.0793457
-0.252075
-0.249634
-0.149231
-0.0967407
-0.0656128
-0.00854492
0.0152588
0.0119019
0.0192261
0.015564
0.00488281
0.00183105
0.032959
0.117188
0.118408
0.0765991
0.0119019
-0.0753784
-0.230713
-0.29541
-0.284424
-0.215759
-0.0604248
0.0585938
0.110168
0.108948
-0.00152588
-0.0613403
0
0.107117
0.210571
0.264587
0.117798
-0.0576782
-0.115051
-0.0994873
0.0302124
0.276184
0.316467
0.173645
0.032959
-0.149841
-0.286255
-0.288086
-0.290222
-0.228577
-0.107727
0.038147
0.144958
0.170898
0.134888
0.0857544
0.0469971
-0.0186157
-0.0491333
-0.0747681
-0.0793457
-0.0744629
-0.0845337
-0.0665283
-0.0686646
-0.00457764
0.116577
0.202942
0.192261
0.131836
0.135193
0.169067
0.209351
0.229797
0.220032
0.170898
0.124207
0.109558
0.0912476
0.0231934
-0.0466919
-0.130615
-0.237122
-0.325317
-0.292664
-0.271606
-0.269775
-0.187988
-0.0714111
-0.0198364
0.0369263
0.0927734
0.141602
0.187378
0.268555
0.352478
0.414124
0.418091
0.367432
0.265198
0.111694
-0.0842285
-0.172729
-0.204163
-0.193176
-0.153503
-0.125122
-0.138855
-0.118103
-0.0909424
-0.0723267
-0.0131226
0.0601196
0.166931
0.328064
0.40863
0.380554
0.264893
0.12207
-0.0323486
-0.164185
-0.26825
-0.276489
-0.243835
-0.201416
-0.127258
-0.0512695
-0.0125122
0.00213623
-0.0372314
-0.0732422
-0.038147
0.00671387
0.0564575
0.130615
0.220032
0.335693
0.382996
0.27832
0.0680542
-0.122986
-0.222778
-0.248108
-0.19928
-0.131226
-0.0769043
-0.0634766
-0.0939941
-0.157471
-0.215454
-0.218201
-0.1297
0.0363159
0.179138
0.251465
0.283813
0.270081
0.243835
0.25238
0.306091
0.299072
0.248718
0.198669
0.0848389
-0.0909424
-0.160828
-0.193481
-0.205688
-0.209045
-0.229187
-0.223694
-0.224304
-0.192261
-0.0759888
0.0521851
0.144043
0.184021
0.284729
0.428162
0.517883
0.605774
0.600891
0.388184
0.133362
-0.0878906
-0.327759
-0.432739
-0.391541
-0.367126
-0.348206
-0.279541
-0.168762
-0.0436401
0.104065
0.0994873
0.0213623
-0.0109863
-0.0436401
-0.0552368
-0.0320435
0
0.0772095
0.0830078
-0.00305176
-0.130615
-0.152283
-0.118103
-0.0814819
-0.0610352
-0.0900269
-0.104065
-0.0918579
-0.100403
-0.0576782
0.0189209
0.085144
0.101624
0.0723267
0.0378418
0.0366211
0.0534058
0.0360107
0.0271606
0.00732422
0.00366211
0.0228882
0.0704956
0.134888
0.177002
0.185852
0.174255
0.151367
0.101624
0.032959
-0.0296021
-0.0790405
-0.0967407
-0.098877
-0.13092
-0.123596
-0.105591
-0.0961304
-0.085144
-0.0924683
-0.133972
-0.132751
-0.0991821
-0.0765991
-0.0726318
-0.0280762
0.0317383
0.117493
0.141602
0.189514
0.277405
0.32196
0.310974
0.20813
0.0888062
0.0164795
0.0106812
0.00579834
0.00823975
0.0848389
0.10498
0.11261
0.0808716
0.0646973
0.0408936
0.00946045
0
0.0619507
0.179443
0.31311
0.395508
0.375977
0.169983
-0.0411987
-0.129395
-0.177307
-0.158081
-0.0888062
-0.0646973
-0.0177002
0.0109863
-0.0564575
-0.0640869
-0.0323486
0.0219727
0.12207
0.207214
0.232239
0.190735
0.0598145
-0.0567627
-0.157776
-0.323181
-0.507507
-0.639343
-0.628662
-0.476379
-0.295715
-0.115051
0.0485229
0.0979614
0.0924683
0.038147
0.0247192
0.0402832
0.00213623
-0.0311279
-0.0274658
-0.032959
-0.0549316
-0.100708
-0.136414
-0.213928
-0.290833
-0.317078
-0.29541
-0.214233
-0.0665283
0.161743
0.307617
0.340881
0.304871
0.243835
0.213928
0.219421
0.168762
0.0692749
-0.0396729
-0.119324
-0.127258
-0.0772095
-0.0137329
0.0296021
0.0485229
0.057373
0.0445557
0.00732422
-0.0332642
-0.0177002
0.0543213
0.0888062
0.119019
0.109558
0.0646973
0.0244141
0.0128174
0.093689
0.16571
0.185242
0.19165
0.244751
0.335388
0.37262
0.362244
0.265503
0.133362
-0.0463867
-0.153503
-0.15564
-0.13092
-0.144653
-0.170593
-0.244446
-0.28717
-0.289917
-0.285645
-0.206299
-0.164185
-0.213928
-0.232849
-0.185852
-0.10498
-0.0738525
-0.0817871
-0.0808716
-0.0500488
-0.0411987
-0.027771
-0.00488281
0.0402832
0.0473022
0.0473022
0.0454712
0.0570679
0.0576782
0.114136
0.172119
0.141907
0.0921631
0.0317383
-0.0497437
-0.0881958
-0.0354004
0.0140381
-0.0524902
-0.143127
-0.180359
-0.157471
-0.0375366
0.196533
0.298157
0.278931
0.193176
0.116577
0.0814819
0.0985718
0.122375
0.204468
0.353699
0.447693
0.475464
0.496216
0.389709
0.223083
0.10498
-0.0543213
-0.20813
-0.244446
-0.256958
-0.294189
-0.273438
-0.23468
-0.21698
-0.167542
-0.0939941
-0.0686646
-0.0759888
-0.0927734
-0.119629
-0.136414
-0.158691
-0.211792
-0.173645
-0.0692749
-0.0463867
-0.137024
-0.105286
-0.0485229
0.0088501
0.0479126
0.043335
0.0195312
-0.00366211
-0.0247192
-0.0210571
-0.0112915
-0.0183105
-0.017395
-0.0164795
0.0317383
0.0726318
0.0692749
0.0112915
-0.0415039
-0.0830078
-0.105286
-0.0872803
-0.0671387
-0.00488281
0.0436401
0.0909424
0.137634
0.170288
0.134888
0.0790405
0.0463867
0.00549316
-0.0527954
-0.0741577
-0.0830078
-0.109863
-0.0588989
0.0289917
0.0845337
0.126038
0.137634
0.16449
0.129395
0.071106
0.0244141
-0.0393677
-0.0543213
-0.0588989
0.00152588
0.0790405
0.124207
0.0704956
0.00701904
-0.0576782
-0.0271606
0.160522
0.458069
0.6604
0.696106
0.651245
0.455627
0.16571
-0.0747681
-0.236206
-0.352783
-0.379639
-0.232849
-0.0595093
0.0289917
0.0125122
-0.0653076
-0.18219
-0.204773
-0.181274
-0.210876
-0.200806
-0.117188
-0.0881958
-0.101624
-0.148621
-0.19928
-0.282898
-0.321045
-0.246582
-0.12146
-0.0402832
-0.0250244
-0.0366211
-0.0708008
-0.0827026
-0.0488281
-0.00976562
0.010376
0.0125122
-0.0262451
-0.0476074
-0.0109863
0
0.00732422
0.0363159
0.0769043
0.0650024
0.0317383
0.00946045
-0.0262451
-0.0698853
-0.0708008
-0.0613403
-0.0369263
-0.0439453
-0.0512695
-0.0576782
-0.0180054
0.00671387
0.0473022
0.12207
0.185242
0.197754
0.145569
0.0689697
0.0198364
0.0415039
0.100403
0.147705
0.141907
0.10376
0.015564
-0.0482178
-0.0473022
-0.0393677
-0.0170898
0.0579834
0.125732
0.188904
0.190735
0.129395
0.0637817
0.0317383
0.0610352
0.101929
0.110779
0.0717163
0.0360107
-0.0143433
-0.0897217
-0.173645
-0.184937
-0.144348
-0.093689
-0.065918
-0.0170898
0.0158691
0.0393677
0.0491333
-0.00610352
-0.0967407
-0.146179
-0.231934
-0.350037
-0.327759
-0.177307
-0.0927734
-0.0210571
0.098877
0.197449
0.249939
0.155945
0.0448608
-0.0357056
-0.0927734
-0.0942993
-0.0830078
-0.06073
-0.06073
-0.0708008
-0.0634766
-0.0656128
-0.0253296
0
0.0393677
0.0485229
0.0363159
0.057373
0.0765991
0.0564575
0.0576782
0.160828
0.184326
0.158386
0.257874
0.394592
0.516663
0.619507
0.578003
0.362244
0.0460815
-0.138245
-0.153198
-0.133057
-0.190125
-0.30304
-0.362549
-0.353699
-0.329895
-0.292664
-0.254822
-0.215454
-0.193787
-0.212708
-0.19165
-0.154724
-0.128479
-0.106506
-0.0827026
-0.0564575
-0.0415039
-0.0650024
-0.0256348
-0.0170898
-0.0454712
-0.0430298
-0.00427246
0.00518799
0.00946045
0.0106812
-0.0137329
-0.0366211
-0.0268555
0.00915527
-0.00457764
-0.0112915
0.0476074
0.0656128
0.0134277
-0.0308228
-0.00305176
0.0778198
0.169067
0.186462
0.15564
0.116577
0.0582886
-0.00946045
-0.0708008
-0.0909424
-0.0338745
0.106201
0.223083
0.304565
0.28717
0.23468
0.136414
-0.0146484
-0.179138
-0.198975
-0.135803
0.027771
0.241394
0.331116
0.324707
0.275574
0.145874
-0.0582886
-0.201111
-0.279541
-0.3125
-0.314331
-0.247498
-0.127258
0.0622559
0.265808
0.434265
0.45105
0.363159
0.215454
-0.0112915
-0.227356
-0.252686
-0.238037
-0.21698
-0.18158
-0.156555
-0.105591
-0.0744629
-0.0558472
-0.0802612
-0.0827026
-0.078125
-0.0637817
-0.102844
-0.172729
-0.181885
-0.135193
-0.0662231
-0.0552368
-0.0540161
-0.0518799
-0.0137329
-0.0125122
-0.0216675
-0.0109863
0.0549316
0.119629
0.187073
0.212097
0.241699
0.196533
0.114136
0.0128174
-0.0244141
-0.0292969
-0.0341797
-0.0125122
0.0170898
0.0274658
0.0244141
0.0476074
0.067749
0.0906372
0.143433
0.245056
0.354004
0.372925
0.351257
0.242004
0.0241089
-0.083313
-0.0183105
0.0692749
0.14679
0.174255
0.124817
0.0332642
-0.050354
-0.14801
-0.159302
-0.128479
-0.118713
-0.0524902
0.0152588
0.0314331
-0.00183105
-0.0540161
-0.0808716
-0.0897217
-0.0857544
-0.067749
-0.0689697
-0.0521851
-0.0656128
-0.138855
-0.260315
-0.356445
-0.318909
-0.229492
-0.117798
-0.0192261
0.0619507
0.0991821
0.0958252
0.0796509
0.115662
0.149536
0.0619507
-0.0491333
-0.153503
-0.205383
-0.19989
-0.158081
-0.10437
-0.062561
-0.0479126
-0.0259399
0.020752
0.0689697
0.183105
0.359192
0.462952
0.574646
0.546265
0.378418
0.144958
-0.00640869
-0.0390625
-0.0259399
-0.0271606
-0.0405884
-0.0466919
-0.00488281
0.0241089
0.0262451
0.0210571
0.00152588
-0.0689697
-0.151672
-0.245667
-0.302734
-0.254517
-0.138855
-0.065918
-0.00701904
0.0210571
-0.00640869
-0.0216675
-0.0167847
-0.0149536
-0.0302124
-0.0430298
-0.0390625
-0.0119019
0.0115967
0.000915527
-0.038147
-0.0738525
-0.0686646
-0.0521851
0.015564
0.085144
0.137024
0.162354
0.165405
0.151062
0.105591
0.0317383
-0.0241089
-0.0769043
-0.100098
-0.110779
-0.10498
-0.0894165
-0.0354004
0.0238037
0.0906372
0.169983
0.221252
0.257263
0.275574
0.220032
0.0717163
0.00549316
0.00274658
-0.0665283
-0.102539
-0.107727
-0.114441
-0.139771
-0.14801
-0.145569
-0.0909424
0.00732422
0.111084
0.234985
0.237427
0.0888062
-0.195618
-0.326233
-0.267334
-0.149536
0.0671387
0.256042
0.358276
0.348816
0.249634
0.172424
0.0604248
-0.0332642
-0.13092
-0.201721
-0.249634
-0.256958
-0.25177
-0.266724
-0.284729
-0.272827
-0.224304
-0.154114
-0.0326538
0.0985718
0.166931
0.180054
0.189209
0.237122
0.298157
0.290222
0.228271
0.154419
0.0192261
-0.00701904
0.0857544
0.136108
0.0915527
-0.00579834
-0.0534058
-0.0592041
-0.101929
-0.124817
-0.0527954
0.0402832
0.106812
0.101929
0.0720215
0.0827026
0.0939941
0.0222778
-0.0244141
-0.0271606
-0.0549316
-0.112
-0.132446
-0.0811768
-0.0143433
0.0701904
0.131226
0.182495
0.200806
0.13855
0.0140381
-0.0881958
-0.102539
-0.0866699
0.00701904
0.127869
0.162964
0.0775146
-0.0405884
-0.071106
-0.0912476
-0.0640869
-0.0320435
-0.0802612
-0.143433
-0.154114
-0.110168
-0.0341797
0.0271606
0.0204468
-0.0360107
-0.109558
-0.109253
-0.158081
-0.237122
-0.218811
-0.167847
-0.110168
0.00671387
0.0793457
0.0604248
-0.0320435
-0.0311279
0.0308228
0.0106812
-0.00488281
0.0317383
0.0772095
0.057373
-0.0137329
-0.0442505
-0.0534058
-0.0704956
-0.0967407
-0.0714111
-0.00335693
0.104675
0.179443
0.191345
0.187683
0.137329
0.0726318
0.0289917
-0.0134277
-0.0473022
-0.0582886
0.000915527
0.0860596
0.157166
0.165405
0.115662
0.0402832
0.0241089
0.06073
0.0863647
0.136108
0.227356
0.284424
0.235596
0.152283
0.0613403
-0.00427246
-0.0448608
-0.0268555
-0.00305176
-0.00244141
-0.0756836
-0.159912
-0.222778
-0.209656
-0.154114
-0.0778198
0.0183105
0.110474
0.142822
0.101013
0.0375366
0.0570679
0.159607
0.175476
0.00152588
-0.085144
-0.124207
-0.190735
-0.171814
-0.101318
-0.03479
-0.0296021
-0.0537109
-0.0619507
-0.0869751
-0.0894165
-0.0509644
-0.0854492
-0.172119
-0.166321
-0.0692749
-0.0457764
-0.0238037
-0.00732422
0.0338745
0.0863647
0.103455
0.123901
0.0994873
0.000915527
-0.0588989
-0.0366211
-0.00305176
0.00335693
-0.00579834
-0.0518799
-0.0753784
-0.078125
-0.0720215
-0.0308228
0.00946045
0.0354004
0.0497437
0.0283813
-0.0463867
-0.0927734
0
0.0930786
0.129089
0.134888
0.0521851
-0.0088501
0.00946045
0.0985718
0.137939
0.0796509
0.015564
-0.0222778
-0.0311279
0.0802612
0.323486
0.475159
0.491028
0.458374
0.368042
0.209351
0.0476074
-0.160217
-0.355225
-0.41626
-0.336304
-0.198975
-0.0790405
0.0454712
0.184021
0.233154
0.0961304
-0.022583
-0.108948
-0.197754
-0.239258
-0.220337
-0.163269
-0.0848389
-0.00274658
0.0265503
-0.012207
-0.0793457
-0.175476
-0.218506
-0.19165
-0.111694
0.0656128
0.258484
0.298767
0.177917
0.0396729
0.0170898
-0.0140381
-0.0637817
-0.090332
-0.122681
-0.147095
-0.123901
-0.1474
-0.193176
-0.25116
-0.272522
-0.216675
-0.119629
0
0.105896
0.258789
0.307922
0.23407
0.174255
0.157166
0.155029
0.158386
0.117188
0.120239
0.139771
0.129395
0.122986
0.148621
0.162964
0.0915527
0
-0.0799561
-0.0842285
-0.057373
0.0170898
0.0570679
0.00457764
-0.0772095
-0.0915527
-0.0588989
-0.0338745
-0.0357056
-0.0308228
-0.0115967
0.0357056
0.0875854
0.0680542
0.0228882
-0.0149536
-0.0247192
-0.0210571
-0.0448608
-0.062561
-0.0418091
-0.0152588
-0.0296021
-0.0500488
-0.0369263
0.0247192
0.104065
0.140686
0.16571
0.112305
0.0112915
-0.0979614
-0.191956
-0.248413
-0.257568
-0.158081
-0.0393677
0.017395
0.0372314
0.0466919
0.0613403
0.0518799
0.0192261
0.00366211
-0.0387573
-0.050354
0.0256348
0.125732
0.135498
0.098877
0.0216675
-0.105896
-0.155945
-0.162048
-0.181885
-0.179749
-0.126648
-0.00366211
0.0942993
0.0631714
0.0604248
0.0866699
0.107727
0.179138
0.254822
0.245056
0.17395
0.188293
0.183716
0.141602
0.098877
0.0839233
0.10376
0.177307
0.241394
0.229187
0.168152
0.141296
0.0900269
-0.050354
-0.210571
-0.309143
-0.354309
-0.298462
-0.237122
-0.170593
-0.106201
-0.0860596
-0.0598145
-0.0283813
-0.0210571
0.0411987
0.11261
0.098877
0.0579834
-0.00671387
-0.0823975
-0.210266
-0.272827
-0.270691
-0.19043
-0.0753784
-0.0231934
-0.000915527
0.0415039
0.0784302
0.0640869
0.0497437
-0.0088501
-0.0564575
-0.0280762
0.000305176
-0.00518799
-0.0411987
-0.0720215
-0.107117
-0.111084
-0.0793457
0.0183105
0.191345
0.244141
0.233459
0.21698
0.130005
0.0427246
-0.0411987
-0.098877
-0.134888
-0.0762939
-0.0579834
-0.0241089
-0.00366211
0.0582886
0.204468
0.328979
0.400085
0.383911
0.285034
0.141602
0.0390625
-0.00488281
0.0338745
0.0457764
0.0448608
0.0473022
-0.015564
-0.136414
-0.220947
-0.231628
-0.192566
-0.126953
-0.0772095
-0.050354
-0.0668335
-0.119934
-0.174255
-0.194702
-0.240173
-0.265503
-0.275879
-0.244446
-0.15686
-0.045166
0.0634766
0.153198
0.16571
0.145569
0.093689
0.0540161
0.0418091
0.0820923
0.116882
0.0997925
0.10498
0.100708
0.0875854
0.0869751
0.108337
0.0949097
0.00732422
-0.0979614
-0.163269
-0.172424
-0.133362
-0.038147
0.0708008
0.149536
0.166626
0.11322
0.0872803
0.0817871
0.0442505
-0.0119019
-0.0640869
-0.113525
-0.155334
-0.118103
-0.0949097
-0.0646973
0.00183105
0.132751
0.191956
0.214233
0.249329
0.187988
0.167542
0.13092
0.00457764
-0.0485229
-0.0259399
0.108948
0.173035
0.122986
0.0784302
0.0167847
0.0445557
0.0930786
0.0927734
-0.00579834
-0.122986
-0.218811
-0.257568
-0.238342
-0.221558
-0.22522
-0.211792
-0.163879
-0.102234
-0.0686646
-0.0579834
-0.0390625
-0.0653076
-0.10437
-0.135498
-0.184631
-0.172424
-0.125732
0.0341797
0.143433
0.117493
0.0549316
-0.057373
-0.10498
-0.0402832
0.050354
0.0402832
0.0106812
-0.0152588
-0.0268555
-0.0241089
0.00610352
-0.0296021
-0.134277
-0.180054
-0.156555
-0.109863
0.00915527
0.142212
0.212097
0.238953
0.219116
0.167847
0.104675
0.0723267
0.085144
0.106201
0.124512
0.112
0.0653076
-0.015564
-0.078125
-0.0845337
-0.0836182
-0.0772095
-0.0820923
-0.108337
-0.157776
-0.186768
-0.20752
-0.197144
-0.170593
-0.0875854
0.0668335
0.133057
0.135193
0.131531
0.159912
0.202942
0.240479
0.22583
0.188293
0.143738
0.0640869
0.0259399
0.00854492
-0.0234985
-0.101624
-0.162659
-0.179749
-0.210876
-0.231934
-0.244446
-0.207825
-0.169678
-0.125427
-0.110168
-0.0769043
-0.0421143
-0.0369263
-0.0390625
-0.00701904
0.020752
0.0439453
0.0582886
0.0457764
0.0213623
-0.0378418
-0.0817871
-0.0823975
-0.098877
-0.0500488
0.0756836
0.111389
0.0769043
0.0952148
0.131226
0.178223
0.168762
0.116577
0.0350952
-0.0296021
-0.0289917
-0.0100708
0.0238037
0.0323486
0.0549316
0.0408936
-0.00457764
-0.00152588
0.0131226
-0.00305176
-0.0128174
0.00335693
-0.00701904
0.00610352
0.0250244
0.0363159
0.043335
0.0143433
0.0408936
0.152283
0.185852
0.142517
0.0897217
0.0143433
-0.0415039
-0.0793457
-0.0430298
0.00854492
0.0408936
0.12207
0.253601
0.361633
0.402832
0.35553
0.249329
0.157166
0.0656128
-0.00457764
-0.0787354
-0.172119
-0.256653
-0.181885
-0.0567627
-0.0900269
-0.181885
-0.165405
-0.136108
-0.168762
-0.151062
-0.104675
-0.13031
-0.104065
-0.0704956
-0.0372314
0.00152588
-0.0146484
-0.0747681
-0.103149
-0.121155
-0.133667
-0.140686
-0.156555
-0.158081
-0.144348
-0.0964355
-0.0762939
-0.0259399
0.050354
0.0878906
0.0949097
0.100708
0.0930786
0.142517
0.170898
0.135498
0.0875854
0.0775146
0.0784302
0.0830078
0.0704956
0.0354004
0.000915527
-0.0161743
-0.0323486
-0.0378418
0.00335693
0.027771
-0.0109863
0.00488281
0.0460815
0.0628662
0.0436401
0.0457764
0.0506592
0.0454712
0.0335693
0.00244141
-0.0158691
-0.0128174
0.0167847
0.0244141
0.0897217
0.14679
0.154114
0.111389
0.0793457
0.123596
0.1828
0.245667
0.306702
0.326233
0.301514
0.20752
0.0561523
-0.111084
-0.214233
-0.255127
-0.249023
-0.260925
-0.294189
-0.293274
-0.218201
-0.200806
-0.177612
-0.101013
-0.0335693
0.0186157
0.0338745
0.0704956
0.0906372
0.0753784
0.0476074
-0.0149536
-0.0708008
-0.107727
-0.0830078
-0.0198364
0.0454712
0.0769043
0.0717163
0.0216675
0.00671387
0.0177002
0.0598145
0.119629
0.15564
0.124512
0.0680542
-0.0195312
-0.0967407
-0.126953
-0.0961304
-0.0482178
0.0634766
0.147705
0.158081
0.101624
0.0424194
0.0485229
0.0656128
0.0411987
-0.0622559
-0.0881958
-0.0619507
-0.0335693
-0.0662231
-0.0997925
-0.0674438
-0.0375366
-0.0411987
-0.098877
-0.133362
-0.106506
-0.0357056
0.0939941
0.253906
0.372009
0.410461
0.37323
0.296326
0.213318
0.0747681
-0.0482178
-0.149231
-0.174866
-0.178833
-0.172119
-0.142822
-0.184021
-0.19043
-0.127869
-0.0686646
-0.0125122
0.0662231
0.155945
0.186768
0.143738
0.0985718
0.0439453
0.0167847
-0.043335
-0.0601196
-0.0357056
-0.0100708
0.015564
0.0338745
0.0732422
0.0753784
0.0216675
-0.0283813
-0.03479
-0.022583
-0.0283813
-0.00854492
0.0109863
-0.0134277
-0.062561
-0.115051
-0.150452
-0.137024
-0.0869751
-0.0308228
0.0344849
0.101013
0.143127
0.154419
0.117493
0.0421143
0.0350952
0.0357056
0.0134277
0.00213623
0.0167847
0.00457764
-0.038147
-0.00701904
0.072937
0.109253
0.123291
0.138855
0.1474
0.110779
0.0125122
-0.0469971
-0.118713
-0.204468
-0.267029
-0.173035
-0.0408936
0.0527954
0.100098
0.0564575
0.00610352
-0.0515747
-0.067749
-0.0469971
-0.0137329
0.027771
0.0497437
0.0976562
0.195618
0.255737
0.232849
0.203247
0.177612
0.109253
0.0186157
-0.1651
-0.262146
-0.187988
-0.093689
-0.0897217
-0.0762939
0.000915527
0.0970459
0.220947
0.289917
0.284119
0.223389
0.149231
0.15564
0.107117
0.0653076
0.100403
0.100708
0.00213623
-0.157166
-0.235901
-0.204773
-0.117798
-0.0820923
-0.0830078
-0.155029
-0.255737
-0.281067
-0.267029
-0.23407
-0.180359
-0.141602
-0.105896
-0.0686646
-0.0354004
-0.0253296
-0.0198364
-0.0244141
-0.00610352
-0.0222778
-0.071106
-0.0662231
-0.0262451
0.00335693
0.0100708
0.085144
0.213623
0.333557
0.392151
0.379028
0.357056
0.325623
0.267944
0.235291
0.202332
0.171814
0.0558472
-0.135803
-0.338135
-0.523682
-0.625
-0.661621
-0.544434
-0.361633
-0.10376
0.138855
0.322876
0.35675
0.267334
0.153503
0.0592041
-0.0186157
-0.0460815
-0.0509644
-0.0100708
0.0796509
0.164185
0.226746
0.209961
0.112915
0.057373
-0.012207
-0.0613403
-0.0265503
0.0738525
0.168457
0.206909
0.197144
0.140381
-0.0137329
-0.130615
-0.176697
-0.146179
-0.0735474
0.0180054
0.0762939
0.0643921
0.0735474
0.0985718
0.0906372
-0.00671387
-0.159607
-0.255737
-0.241699
-0.187378
-0.137939
-0.0524902
0.00396729
0.0402832
0.0485229
0.0485229
0.0469971
0.0109863
-0.0430298
-0.0369263
-0.0476074
-0.0256348
-0.00579834
0.0439453
0.0894165
0.0506592
0.0167847
0.0204468
0.0296021
-0.00701904
-0.0717163
-0.0961304
-0.0701904
-0.0881958
-0.104065
-0.145874
-0.114136
-0.0222778
0.123901
0.158386
0.142822
0.00488281
-0.170898
-0.274963
-0.316162
-0.301208
-0.141602
0.0692749
0.264587
0.417786
0.515137
0.513611
0.40863
0.212097
0.00946045
-0.0961304
-0.0790405
-0.0637817
-0.0265503
0.0167847
0.00610352
-0.0274658
-0.00701904
0.0326538
0.0509644
-0.0109863
-0.0881958
-0.0820923
-0.0274658
-0.00366211
0.0106812
0.0302124
-0.00701904
-0.0796509
-0.131226
-0.125732
-0.100708
-0.0994873
-0.0930786
-0.085144
-0.0662231
0.00183105
0.0479126
0.0823975
0.114746
0.217896
0.345154
0.43396
0.474548
0.47821
0.320435
0.0726318
0.00579834
0
-0.0524902
-0.126038
-0.160522
-0.144958
-0.0942993
-0.0875854
-0.131531
-0.133362
-0.0650024
-0.00579834
0.0552368
0.0485229
-0.0595093
-0.176697
-0.244446
-0.275269
-0.217896
-0.111694
-0.0332642
0.0546265
0.179749
0.214233
0.155945
0.032959
-0.083313
-0.0823975
0.0357056
0.185242
0.295105
0.341187
0.291443
0.148315
0.0546265
0.0112915
-0.0012207
-0.0765991
-0.106812
-0.128479
-0.137634
-0.155945
-0.189514
-0.219421
-0.258179
-0.276489
-0.240479
-0.155029
0.020752
0.220642
0.376892
0.389404
0.269775
0.153503
0.0759888
-0.0387573
-0.00152588
0.158691
0.204773
0.135498
0.0604248
0.0592041
0.0787354
0.0253296
-0.0595093
-0.171814
-0.241394
-0.292358
-0.224915
-0.119629
-0.0765991
-0.0482178
-0.0610352
-0.0900269
-0.118103
-0.133972
-0.137024
-0.124512
-0.100403
-0.0656128
-0.0546265
-0.0323486
-0.00305176
0.0631714
0.142822
0.0842285
0.00518799
-0.0473022
-0.0897217
-0.0958252
-0.0924683
-0.101013
-0.105286
-0.103455
-0.114441
-0.0915527
-0.057373
-0.0112915
0.0259399
0.0323486
0.0460815
0.14679
0.289307
0.402527
0.444641
0.457764
0.384521
0.194092
-0.0265503
-0.12146
-0.151062
-0.161133
-0.117493
-0.0686646
-0.0598145
-0.0997925
-0.163879
-0.150757
-0.0491333
0.0790405
0.207214
0.331726
0.327148
0.227356
0.196228
0.129089
0.0820923
0.0106812
-0.0476074
-0.0457764
-0.0442505
-0.108948
-0.186157
-0.323792
-0.446472
-0.42572
-0.336609
-0.198975
0.00640869
0.295105
0.41626
0.325928
0.198364
0.108337
0.0695801
0.06073
0.0360107
-0.0115967
-0.0482178
-0.0970459
-0.144653
-0.194702
-0.230408
-0.218201
-0.156555
-0.0534058
0.0247192
0.11322
0.185242
0.146484
0.0790405
0.124817
0.20874
0.246277
0.187683
0.120544
0.0595093
-0.057373
-0.183716
-0.221558
-0.232849
-0.271912
-0.244141
-0.115662
-0.0238037
0.0250244
0.152588
0.210571
0.108032
0.0180054
-0.010376
0.0283813
-0.0204468
-0.179443
-0.298767
-0.32196
-0.325928
-0.269165
-0.126953
0.0485229
0.200195
0.256653
0.216064
0.136108
0.00335693
-0.142212
-0.178528
-0.0302124
0.0875854
0.123596
0.100708
0.105591
0.170288
0.235596
0.267639
0.268555
0.225525
0.140381
0.00915527
-0.123291
-0.245056
-0.279541
-0.178223
-0.0393677
0.144348
0.286865
0.360107
0.353699
0.228577
0.0442505
-0.0418091
-0.022583
0.0170898
0.0665283
0.0326538
-0.148621
-0.23407
-0.339355
-0.370178
-0.329895
-0.270691
-0.154114
0.0204468
0.147095
0.155945
0.122375
0.142517
0.0668335
0
-0.0244141
-0.116882
-0.198975
-0.159302
-0.10498
0.00854492
0.0689697
0.0604248
0.0952148
0.13855
0.223999
0.346985
0.456848
0.48645
0.415649
0.203857
-0.118713
-0.353088
-0.315247
-0.140076
-0.106812
-0.146179
-0.178528
-0.19104
-0.315552
-0.484924
-0.51178
-0.409546
-0.234985
0.00701904
0.211487
0.298157
0.282288
0.188904
0.045166
-0.0845337
-0.139771
-0.184326
-0.189819
-0.149231
-0.110168
-0.0961304
-0.0531006
-0.0012207
0.00976562
-0.00579834
0.00579834
-0.0186157
-0.057373
-0.0323486
0.0772095
0.297241
0.400696
0.341492
0.189819
0.0613403
0.0708008
0.11261
0.140381
0.14801
0.13031
0.109253
-0.0164795
-0.143127
-0.234375
-0.231628
-0.163574
-0.027771
0.00915527
-0.0430298
-0.136108
-0.164795
-0.128479
-0.00396729
0.107117
0.162048
0.128784
0.0183105
-0.118713
-0.188599
-0.198975
-0.0622559
0.109253
0.280151
0.46936
0.573425
0.558167
0.405884
0.204163
-0.00946045
-0.145874
-0.144958
-0.102844
-0.0415039
-0.00732422
-0.0567627
-0.12085
-0.11322
-0.117493
-0.180664
-0.218201
-0.173645
-0.0411987
0.0527954
0.0592041
0.0427246
-0.0643921
-0.169373
-0.209961
-0.234375
-0.256042
-0.215759
-0.139771
-0.0634766
0.000915527
0.0817871
0.124207
0.0604248
0.0283813
-0.0140381
-0.0912476
-0.112
-0.166626
-0.148621
-0.0793457
-0.0170898
0.0579834
0.151367
0.172424
0.164795
0.0973511
0.0579834
0.0759888
0.085144
0.065918
0.0115967
0.022583
0.0720215
0.118408
0.195007
0.32135
0.424805
0.359802
0.255737
0.190125
0.127563
0.065918
-0.0109863
-0.0595093
-0.106201
-0.190735
-0.169067
-0.0592041
0.0216675
0.00305176
-0.0543213
-0.0836182
-0.151367
-0.138245
-0.0772095
-0.0704956
-0.0604248
-0.043335
0.0485229
0.108643
0.123901
0.093689
0.144958
0.229187
0.303955
0.289001
0.161133
0.0283813
-0.115967
-0.209961
-0.279846
-0.299377
-0.237732
-0.137939
-0.0421143
-0.00579834
-0.0732422
-0.178528
-0.244446
-0.273132
-0.230408
-0.176086
-0.101624
0.0735474
0.231018
0.249023
0.209045
0.123901
0.032959
0.00946045
0
0.00762939
0.0186157
-0.022583
-0.0531006
-0.0582886
-0.0613403
-0.039978
0.0231934
0.098877
0.131836
0.155945
0.152283
0.0991821
-0.000610352
-0.0799561
-0.119324
-0.151367
-0.145569
-0.112
-0.0494385
0.00946045
0.0305176
0.071106
0.0814819
0.0601196
0.0759888
0.133972
0.2005
0.258789
0.244751
0.205383
0.128174
0.107117
0.0531006
0.00946045
-0.0177002
-0.0543213
-0.102844
-0.157776
-0.112
0.0289917
0.168152
0.259705
0.267944
0.247192
0.246277
0.214539
0.138855
0.114136
0.0604248
-0.027771
-0.0823975
-0.098877
-0.217896
-0.333252
-0.264893
-0.113831
-0.039978
-0.0305176
-0.0793457
-0.137024
-0.16449
-0.127563
-0.0888062
-0.0628662
-0.0942993
-0.163269
-0.154724
-0.122986
-0.115051
-0.0930786
-0.0341797
0.0259399
0.0302124
0.0915527
0.158997
0.150757
0.0860596
0.000915527
-0.0491333
-0.105896
-0.116882
-0.0927734
-0.0506592
-0.0552368
-0.0628662
-0.118103
-0.185852
-0.185852
-0.160828
-0.184631
-0.178528
-0.19104
-0.202026
-0.137939
0.0338745
0.148621
0.101318
0.0119019
-0.00579834
-0.00335693
0.032959
0.101013
0.142822
0.142212
0.205688
0.379028
0.537415
0.623779
0.63385
0.578003
0.36499
0.0701904
-0.14679
-0.335693
-0.401917
-0.351257
-0.137634
0.0497437
0.010376
-0.093689
-0.113831
-0.0491333
-0.0567627
-0.067749
-0.0201416
0.0314331
0.0335693
0.0125122
0.00457764
-0.017395
-0.0479126
-0.0439453
-0.0192261
0.0115967
0.0482178
0.0897217
0.0637817
0.0375366
0.0720215
0.0942993
0.0973511
0.0387573
0.0158691
0.0128174
-0.0466919
-0.135193
-0.198059
-0.185852
-0.164185
-0.162048
-0.203247
-0.25238
-0.352478
-0.384521
-0.287781
-0.0906372
0.0448608
0.0927734
0.129089
0.175171
0.245056
0.237732
0.167542
0.102234
0.0741577
0.0765991
0.0344849
-0.0158691
-0.0567627
-0.0732422
-0.116577
-0.120544
-0.0454712
-0.0354004
-0.0146484
0.0491333
0.152588
0.319824
0.471191
0.509033
0.461731
0.305481
0.117188
0.0268555
-0.0177002
-0.0402832
-0.11322
-0.143127
-0.110168
-0.104065
-0.111389
-0.0674438
-0.06073
-0.0979614
-0.162964
-0.245056
-0.255432
-0.241699
-0.12207
0.0637817
0.236816
0.396423
0.500793
0.47699
0.424194
0.417175
0.31189
0.0793457
-0.162048
-0.294189
-0.252686
-0.214844
-0.162048
-0.129395
-0.136108
-0.0979614
-0.0814819
-0.0622559
0.0106812
0.0952148
0.0631714
0.0375366
0.0314331
0.032959
0.00976562
-0.00762939
-0.0183105
-0.0149536
0.0305176
0.0662231
0.13092
0.278015
0.407104
0.389709
0.213013
-0.0323486
-0.174561
-0.215149
-0.250244
-0.272522
-0.318298
-0.265808
-0.169678
-0.0650024
0.0311279
0.0906372
0.101929
0.171204
0.248108
0.208435
0.109863
0.0927734
0.03479
-0.111084
-0.130615
-0.118103
-0.191956
-0.211182
-0.139771
-0.0619507
-0.0338745
-0.0375366
-0.0418091
-0.0311279
-0.0601196
-0.0842285
-0.0921631
-0.0717163
-0.0357056
-0.0161743
-0.00732422
-0.0109863
-0.00152588
0.0497437
0.0750732
0.0808716
0.0558472
0.0308228
0.0497437
0.0372314
0.0302124
0.032959
0.0170898
0.00946045
0.0128174
0.0149536
0.022583
0.0765991
0.125122
0.30426
0.473633
0.47699
0.401306
0.299377
0.171509
0.0363159
-0.0622559
-0.0491333
-0.015564
-0.045166
-0.0857544
-0.0820923
-0.0570679
-0.038147
-0.0491333
-0.0604248
-0.0689697
-0.0704956
-0.0460815
-0.0564575
-0.0515747
-0.0759888
-0.129395
-0.203857
-0.281982
-0.301819
-0.290527
-0.230408
-0.126648
-0.00396729
0.117188
0.169678
0.128479
0.0369263
-0.00762939
-0.0308228
-0.0628662
-0.0674438
-0.0689697
-0.105286
-0.0686646
0.00274658
0.0289917
0.0430298
0.067749
0.0436401
-0.0198364
-0.0201416
0.00366211
0.0463867
0.118103
0.122681
0.0775146
0.0338745
0.0323486
0.0177002
-0.0497437
-0.162659
-0.219116
-0.19043
-0.121155
0.000305176
0.178833
0.348206
0.405273
0.365601
0.300598
0.154724
-0.0219727
-0.120544
-0.132751
-0.078125
0.0198364
0.118713
0.221863
0.33844
0.409851
0.426025
0.243835
0.0671387
0.00488281
-0.0448608
-0.135498
-0.247192
-0.311279
-0.307617
-0.332336
-0.32074
-0.230103
-0.205383
-0.187683
-0.0967407
-0.0378418
-0.032959
-0.0088501
0.0335693
0.0967407
0.162964
0.172729
0.176697
0.149536
0.0909424
0.032959
0.0012207
-0.0341797
-0.0552368
-0.0762939
-0.0402832
-0.03479
-0.0674438
-0.141907
-0.172729
-0.142517
-0.135193
-0.174866
-0.169067
-0.126953
-0.0247192
0.0537109
0.0805664
0.0888062
0.106506
0.107117
0.0680542
-0.0119019
-0.0769043
-0.107117
-0.0744629
0.027771
0.133667
0.179138
0.175781
0.17395
0.133362
0.101013
0.0637817
0.00610352
0.0308228
0.0698853
0.015564
-0.0256348
0
0.0790405
0.119934
0.108337
0.0738525
0.0515747
0.071106
0.0759888
0.0601196
0.0286865
0.0314331
0.0296021
0.0402832
-0.0256348
-0.13916
-0.179138
-0.129089
0.0311279
0.228882
0.2948
0.271606
0.151672
-0.0204468
-0.1651
-0.231628
-0.289612
-0.30426
-0.277405
-0.268555
-0.24231
-0.222473
-0.199585
-0.176086
-0.0997925
-0.0314331
0.0106812
0.0180054
0.0106812
0.0210571
-0.0302124
-0.107727
-0.0808716
-0.0698853
-0.0457764
0.032959
0.136108
0.170288
0.0817871
0.0119019
0.0131226
0.0653076
0.124512
0.176392
0.249939
0.267334
0.227966
0.143433
0.0793457
0.0299072
0.0494385
0.0299072
-0.010376
-0.0692749
-0.106506
-0.145874
-0.218201
-0.204163
-0.124512
-0.0518799
0.0326538
0.0567627
-0.0256348
-0.13092
-0.201111
-0.162048
-0.0650024
0.0161743
0.0463867
0.0537109
0.0350952
0.0326538
0.135193
0.320129
0.462646
0.570374
0.516052
0.308533
0.00457764
-0.211182
-0.265808
-0.270691
-0.198669
-0.111389
-0.0283813
0.0354004
-0.00854492
-0.189514
-0.269775
-0.274963
-0.279236
-0.22583
-0.175781
-0.162354
-0.110168
-0.0338745
0.00823975
0.0509644
0.0579834
0.0192261
-0.0213623
-0.0518799
-0.0204468
0.0457764
0.128784
0.174255
0.220337
0.25238
0.164795
0.065918
-0.00671387
-0.100708
-0.144348
-0.0759888
-0.0186157
0.0128174
0.0317383
0.0680542
0.0857544
0.0726318
0.0897217
0.0662231
0.0540161
0.0946045
0.133057
0.133667
0.0942993
-0.0201416
-0.103149
-0.145569
-0.180664
-0.217896
-0.180054
-0.122986
-0.098877
-0.0814819
-0.0765991
-0.0878906
-0.0979614
-0.0778198
-0.0512695
0.0271606
0.149841
0.160217
0.130615
0.144348
0.138855
0.0997925
0.0619507
0.0375366
-0.0979614
-0.192261
-0.218811
-0.197449
-0.141602
-0.0253296
0.158997
0.274658
0.385437
0.440369
0.38269
0.262451
0.26825
0.259399
0.213013
0.176697
0.105286
-0.00213623
-0.0549316
-0.0665283
-0.118408
-0.124512
-0.0952148
-0.185852
-0.227966
-0.203552
-0.107727
-0.0320435
-0.00457764
-0.0372314
-0.125732
-0.220642
-0.267944
-0.291748
-0.286865
-0.243835
-0.185242
-0.0961304
0.0109863
0.0909424
0.124817
0.100708
0.0610352
0.0387573
-0.0314331
-0.0735474
-0.0820923
-0.0656128
-0.0848389
-0.0973511
-0.0723267
-0.00213623
0.0448608
0.109558
0.134583
0.129395
0.105286
0.06073
0
0.0143433
0.0747681
0.0680542
0.0238037
0.00640869
-0.0305176
-0.0335693
0.00976562
0.00457764
0.012207
0.0509644
0.055542
0.0692749
0.0442505
-0.017395
-0.0405884
0.0320435
0.13031
0.190735
0.110779
-0.0137329
-0.111084
-0.0827026
-0.015564
-0.00274658
-0.0588989
-0.137329
-0.0958252
0.0161743
0.0311279
0.0158691
0.050354
0.0726318
0.00762939
-0.105896
-0.124207
-0.0564575
0.0744629
0.159912
0.227356
0.232849
0.141296
0.0952148
0.0692749
0.00183105
-0.0704956
-0.109253
-0.10376
-0.0732422
-0.0585938
-0.0717163
-0.0268555
0.107727
0.231323
0.325928
0.384216
0.300903
0.0662231
-0.104675
-0.13031
-0.0982666
-0.0918579
-0.0802612
-0.0802612
-0.0622559
-0.0271606
-0.0271606
0.0119019
0.0720215
0.100403
0.0262451
0.10437
0.197754
0.146179
0.0537109
-0.00274658
0.0140381
-0.0186157
-0.0747681
-0.0671387
-0.0283813
-0.0149536
-0.0100708
-0.0186157
-0.00457764
0.00366211
-0.00579834
-0.0543213
-0.0973511
-0.158997
-0.170593
-0.171814
-0.166321
-0.129089
-0.11322
-0.134888
-0.140381
-0.108948
-0.0900269
-0.0708008
-0.0350952
-0.0271606
-0.0201416
-0.0686646
-0.0274658
0.0271606
0.0256348
-0.0167847
-0.0210571
0.0604248
0.112
0.1297
0.114136
0.071106
0.0210571
-0.0283813
-0.0460815
-0.067749
-0.0213623
0.0485229
0.0921631
0.118103
0.0637817
0.00793457
-0.0283813
-0.0595093
-0.0616455
0.00610352
0.128784
0.231628
0.293884
0.273743
0.237732
0.176697
0.111694
0.0558472
-0.0338745
-0.144348
-0.166321
-0.126343
-0.0671387
-0.00854492
0.0735474
0.11322
0.0723267
0.0164795
-0.0564575
-0.0616455
-0.0183105
0.0289917
0.0839233
0.101318
0.177002
0.206909
0.162964
0.162354
0.175171
0.160522
0.144653
0.123901
0.15686
0.184631
0.140686
0.0674438
-0.022583
-0.125427
-0.176086
-0.142822
-0.101624
-0.0939941
-0.140381
-0.140381
-0.0619507
0.0439453
0.0622559
-0.0759888
-0.288391
-0.419006
-0.205383
-0.00366211
0.00915527
-0.143738
-0.30304
-0.413208
-0.342407
-0.24231
-0.107117
-0.0457764
0.00366211
0.065918
0.162354
0.215759
0.221863
0.126953
0.0918579
0.102234
0.114136
0.108948
0.100403
0.0741577
0.0012207
-0.0567627
-0.0283813
0.027771
0.0289917
0.0289917
0.0582886
0.085144
0.116882
0.115967
0.0744629
0.0289917
0.00732422
-0.00213623
-0.00579834
-0.0286865
-0.0338745
-0.0537109
-0.0402832
-0.0161743
0.0973511
0.317078
0.48584
0.572205
0.604553
0.515747
0.258789
0.0274658
-0.0762939
-0.09552
-0.119019
-0.0613403
-0.0540161
-0.10437
-0.184021
-0.263062
-0.281677
-0.274658
-0.259094
-0.248718
-0.216064
-0.164185
-0.078125
0.0527954
0.118103
0.0643921
-0.0192261
-0.0549316
-0.110474
-0.1297
-0.140381
-0.0881958
-0.0152588
0.00488281
0.0576782
0.055542
0.103455
0.231018
0.323792
0.256348
0.176392
0.0891113
-0.0341797
-0.103455
-0.0894165
-0.0234985
0.0930786
0.252075
0.410156
0.498352
0.468445
0.274048
-0.0561523
-0.309448
-0.477295
-0.543518
-0.513611
-0.363464
-0.188599
-0.113831
-0.103149
-0.0799561
-0.0753784
-0.0177002
0.142822
0.180664
0.110779
-0.0442505
-0.237122
-0.245972
-0.107727
0.0137329
0.0161743
-0.0436401
-0.0546265
-0.0369263
0.0265503
0.0845337
0.144958
0.343018
0.462036
0.404968
0.272827
0.120544
-0.0369263
-0.185852
-0.263977
-0.282898
-0.250244
-0.23468
-0.229492
-0.181885
-0.152893
-0.0970459
-0.0186157
0.0546265
0.125122
0.182495
0.240173
0.214539
0.135803
0.0088501
-0.139465
-0.177612
-0.141907
-0.0253296
0.16571
0.276794
0.332336
0.293884
0.0695801
-0.319214
-0.401917
-0.223083
0.0430298
0.171814
0.165405
0.0994873
0.0552368
-0.0012207
-0.0289917
-0.0302124
-0.00274658
0.0149536
0.0253296
0.0296021
0.0180054
-0.010376
-0.0421143
-0.0250244
-0.0595093
-0.0253296
0.0234985
0.0320435
0.0595093
0.0802612
0.0540161
0.015564
0.0125122
0.00274658
0.0152588
0.0558472
0.0549316
-0.00305176
-0.0592041
-0.115051
-0.118713
0.032959
0.200806
0.280457
0.302429
0.32074
0.318909
0.259094
0.196533
0.159607
0.102234
-0.0512695
-0.13092
-0.157776
-0.134888
-0.172729
-0.213318
-0.291138
-0.362549
-0.324402
-0.187073
-0.115662
-0.119629
-0.149841
-0.101929
-0.0491333
-0.0320435
-0.0476074
-0.0567627
-0.0311279
0.0289917
0
-0.0360107
-0.090332
-0.101624
-0.0289917
0.039978
0.0228882
-0.108948
-0.170898
-0.0778198
0.135498
0.380249
0.549011
0.61615
0.513611
0.304565
0.123901
-0.00213623
-0.151367
-0.189514
-0.139771
-0.0744629
-0.0292969
0.00366211
0.0396729
0.0643921
0.00671387
-0.0744629
-0.0344849
0.164795
0.294189
0.253601
0.170288
0.0906372
-0.0439453
-0.162964
-0.278931
-0.326538
-0.34729
-0.318604
-0.261536
-0.228271
-0.214844
-0.205383
-0.171814
-0.122986
-0.0491333
0.0390625
0.0485229
0.0161743
-0.0186157
0.00610352
0.0784302
0.146179
0.141907
0.115967
0.0564575
-0.0479126
-0.0515747
-0.0436401
-0.0408936
-0.0256348
0.0473022
0.101624
0.0891113
0.110168
0.151367
0.142822
0.0698853
-0.0704956
-0.191956
-0.25116
-0.231934
-0.0778198
0.085144
0.169067
0.238647
0.301819
0.292358
0.246277
0.141296
0.0512695
-0.0201416
-0.0521851
-0.0320435
0.100098
0.175476
0.175171
0.19104
0.1828
0.19043
0.198364
0.0765991
-0.0100708
-0.0161743
0.0152588
0.0314331
0.0228882
0.0302124
-0.06073
-0.294495
-0.377502
-0.325623
-0.299072
-0.23407
-0.110168
0.0134277
0.0509644
0.0128174
-0.0411987
-0.14679
-0.23407
-0.23407
-0.170288
-0.0778198
-0.0842285
-0.127258
-0.127563
-0.0744629
-0.0158691
0.0534058
0.0784302
0.115051
0.0817871
0.027771
0.0180054
0.0714111
0.156555
0.235291
0.352478
0.466003
0.508728
0.421448
0.258179
0.126648
0.0228882
-0.0610352
-0.161133
-0.305481
-0.423889
-0.448303
-0.41626
-0.316162
-0.0909424
0.0634766
0.100098
0.0231934
-0.0119019
-0.0714111
-0.137634
-0.159302
-0.102844
-0.0588989
-0.090332
-0.166321
-0.202026
-0.142517
-0.0747681
-0.0296021
-0.0265503
-0.0424194
-0.0430298
0.0219727
0.125732
0.220642
0.284424
0.30365
0.246582
0.158386
0.12085
0.146179
0.151672
0.0964355
0.0219727
-0.0512695
-0.0668335
0.0411987
0.142517
0.213318
0.207825
0.129089
-0.0292969
-0.0662231
0.0552368
0.135803
0.150452
0.151062
0.0415039
-0.0302124
0
0.0680542
0.178223
0.327759
0.40802
0.326843
0.174255
0.0192261
-0.160828
-0.38208
-0.426025
-0.297852
-0.19928
-0.135803
-0.0701904
-0.0994873
-0.150757
-0.180359
-0.221558
-0.230713
-0.197449
-0.167542
-0.155029
-0.117798
-0.0863647
-0.0613403
-0.0616455
-0.0588989
-0.0332642
0.0125122
0.0671387
0.0949097
0.102844
0.0527954
-0.0491333
-0.101318
-0.0378418
0.133057
0.239258
0.21759
0.171204
0.190125
0.206909
0.220032
0.272522
0.299683
0.139771
-0.0704956
-0.248718
-0.351868
-0.331116
-0.310364
-0.296631
-0.254211
-0.171204
0.00274658
0.202026
0.387268
0.4776
0.430603
0.301208
0.225525
0.218201
0.166626
0.0921631
-0.116577
-0.368958
-0.447998
-0.326843
-0.22522
-0.133362
-0.0579834
-0.0491333
-0.0698853
-0.0765991
-0.0714111
-0.0674438
-0.0970459
-0.130005
-0.128174
-0.151367
-0.0854492
0.0219727
0.0479126
0.0653076
0.0582886
0.0354004
0.0222778
0.0146484
-0.0308228
-0.0549316
-0.0549316
-0.0436401
-0.00366211
0.0570679
0.113831
0.141907
0.163879
0.201721
0.258484
0.334778
0.333557
0.229797
0.127869
0.0369263
-0.100403
-0.244446
-0.238647
-0.101318
0.0286865
0.120239
0.187378
0.143127
0.0320435
-0.0088501
-0.0106812
0.108337
0.259094
0.27771
0.21759
-0.00396729
-0.159912
-0.30304
-0.323486
-0.257874
-0.203552
-0.0991821
-0.0112915
0.00183105
-0.03479
-0.103455
-0.156555
-0.151672
-0.118408
-0.083313
-0.00915527
0.0497437
0.0747681
0.0775146
-0.0219727
-0.125427
-0.155334
-0.198364
-0.194397
-0.176086
-0.151672
-0.0906372
-0.0149536
0.0448608
0.0860596
0.085144
0.0939941
0.0949097
0.0808716
0.0531006
0.020752
-0.0189209
-0.0631714
-0.0567627
-0.0408936
0.0314331
0.0500488
0.0485229
-0.00579834
-0.0479126
-0.0164795
0.103149
0.273132
0.466919
0.617371
0.54718
0.32074
0.111084
-0.14801
-0.272522
-0.256653
-0.204468
-0.141602
-0.113831
-0.0906372
-0.0424194
-0.00274658
-0.0335693
-0.0344849
0.00701904
0.0732422
0.110168
0.140381
0.140076
0.0582886
-0.0900269
-0.192871
-0.316772
-0.356445
-0.218201
-0.083313
-0.00518799
0.0369263
0.0119019
0.0717163
0.132446
0.167847
0.147095
0.0735474
-0.0305176
-0.057373
-0.0454712
-0.100403
-0.202026
-0.267639
-0.185242
0.00671387
0.186768
0.366516
0.451965
0.455017
0.356445
0.221558
0.194702
0.170593
0.0747681
-0.0112915
-0.0881958
-0.281982
-0.307312
-0.117188
0.000305176
0.0610352
0.09552
0.140991
0.122375
0.0247192
-0.100708
-0.202332
-0.246582
-0.199585
-0.151367
-0.0857544
0.0308228
0.149231
0.194092
0.0909424
-0.0460815
-0.140076
-0.113831
-0.0515747
0.0411987
0.113525
0.192566
0.25116
0.22644
0.225525
0.220642
0.13916
0.0216675
-0.0881958
-0.218811
-0.303345
-0.33905
-0.289001
-0.167847
-0.0335693
0.0234985
0
-0.00732422
-0.015564
0.0320435
0.147705
0.291748
0.335083
0.328979
0.33783
0.323486
0.278931
0.155334
-0.0271606
-0.160828
-0.161743
-0.14801
-0.169067
-0.212097
-0.273438
-0.314026
-0.233459
-0.119629
0.0332642
0.177612
0.218811
0.18158
0.127869
0.0561523
-0.0564575
-0.125732
-0.128174
-0.110779
-0.0772095
-0.0476074
-0.0814819
-0.117798
-0.152283
-0.158997
-0.137634
-0.119934
-0.0820923
-0.0601196
-0.0460815
-0.0488281
-0.0387573
-0.017395
0.032959
0.0939941
0.129089
0.106812
0.0320435
-0.055542
-0.102234
-0.065918
0.00946045
0.0753784
0.0924683
0.088501
0.119934
0.116882
0.09552
0.0808716
0.0802612
0.043335
0.0302124
-0.00274658
-0.0537109
-0.111694
-0.122681
-0.176697
-0.177917
-0.133057
0.0289917
0.22644
0.318909
0.345764
0.381775
0.387878
0.3479
0.236816
0.09552
0.067749
0.116272
0.107727
0.0296021
-0.0769043
-0.136414
-0.176392
-0.195923
-0.189209
-0.159302
-0.123291
-0.124512
-0.109253
-0.109558
-0.126648
-0.140991
-0.129395
-0.111694
-0.11322
-0.0653076
0.022583
0.134583
0.148621
0.0869751
-0.0402832
-0.144348
-0.160828
-0.110474
-0.0244141
-0.00579834
-0.0247192
0.0219727
0.0314331
0.0228882
0.0494385
0.114136
0.163879
0.168152
0.111389
0.0396729
-0.0222778
-0.0439453
0.0167847
0.0012207
-0.110474
-0.196838
-0.285645
-0.321655
-0.224915
-0.0784302
0.0585938
0.141296
0.110168
0.0552368
0.0564575
0.106201
0.160522
0.175476
0.169373
0.102234
0.0320435
-0.067749
-0.138245
-0.115967
-0.0283813
0.0521851
0.0921631
0.0775146
0.0689697
0.0119019
-0.0744629
-0.139465
-0.121155
-0.0979614
-0.0964355
-0.0671387
0.0210571
0.0811768
0.104675
0.151672
0.12207
-0.0741577
-0.115967
-0.062561
-0.078125
-0.0701904
-0.0341797
0.0134277
-0.0222778
-0.0613403
-0.123901
-0.209045
-0.221863
-0.153198
-0.0448608
0.127869
0.27832
0.290222
0.262451
0.231018
0.164185
0.0296021
-0.116577
-0.189209
-0.206299
-0.18219
-0.102539
-0.0256348
0.0357056
0
-0.0646973
-0.00701904
0.020752
0.00823975
0.00183105
-0.0454712
-0.0759888
-0.050354
-0.015564
0.0509644
0.108337
0.152283
0.173645
0.201111
0.194092
0.0848389
0.0119019
-0.0268555
-0.078125
-0.0436401
-0.027771
-0.0668335
-0.045166
0.0796509
0.182495
0.213623
0.183105
0.150146
0.0875854
0.0164795
-0.0778198
-0.111694
-0.015564
0.0772095
0.191345
0.220032
0.114136
-0.0112915
-0.0177002
0.0219727
0.0268555
0.0128174
0.062561
0.0979614
0.085144
0.0198364
-0.010376
-0.0952148
-0.162659
-0.224609
-0.252991
-0.283813
-0.285034
-0.267639
-0.265198
-0.260925
-0.232544
-0.145264
-0.0674438
-0.0247192
-0.0637817
-0.130615
-0.130005
0.00335693
0.251465
0.440369
0.546265
0.568237
0.487061
0.29541
0.119629
0.0183105
0.0213623
0.110474
0.162964
0.189209
0.145569
-0.0280762
-0.253601
-0.325012
-0.237427
-0.153809
-0.0842285
-0.0704956
-0.0939941
-0.102539
-0.0906372
-0.107727
-0.100098
-0.0820923
-0.107727
-0.180359
-0.277405
-0.323181
-0.278625
-0.13855
0.0335693
0.194092
0.237732
0.1651
0.0869751
0.00671387
0.000305176
0.00518799
0.0799561
0.12207
0.15686
0.206604
0.19989
0.25116
0.292358
0.274048
0.220642
0.143127
0.0564575
0.00335693
-0.0357056
-0.0817871
-0.113831
-0.12085
-0.0747681
-0.0994873
-0.230713
-0.274353
-0.255127
-0.206604
-0.163269
-0.0491333
0.127869
0.244446
0.267029
0.218811
0.15625
0.0985718
0.0546265
0.00701904
-0.0479126
-0.0750732
-0.115662
-0.107727
-0.0823975
-0.0524902
-0.0289917
0.00152588
0.000305176
-0.0112915
-0.0231934
-0.0549316
-0.0198364
0.0131226
0.067749
0.0827026
0.045166
0.0234985
0.0524902
0.102844
0.137634
0.189819
0.153198
0.0537109
0.00701904
-0.0442505
-0.0863647
-0.0863647
-0.0424194
0.0222778
0.104675
0.192261
0.239563
0.242004
0.236206
0.151367
-0.0259399
-0.175171
-0.286865
-0.336304
-0.298157
-0.161133
-0.010376
0.113831
0.227966
0.235596
0.148926
0.0335693
-0.0512695
-0.0744629
-0.0753784
-0.0946045
-0.0701904
0.0701904
0.107117
0.0106812
-0.0253296
-0.00640869
0.0662231
0.149231
0.213928
0.167542
0.0405884
-0.0704956
-0.0906372
-0.0820923
-0.0827026
-0.0701904
-0.0177002
0.0131226
0.0610352
0.159912
0.152588
0.015564
-0.0695801
-0.0942993
-0.0857544
-0.0860596
-0.133667
-0.162354
-0.115967
-0.114136
-0.138245
-0.174255
-0.166626
-0.143127
-0.147705
-0.164185
-0.149536
-0.1297
-0.0836182
-0.00549316
0.0448608
0.0570679
0.0704956
0.0991821
0.0875854
0.0796509
0.0289917
-0.0100708
-0.0320435
-0.0189209
0
0.0393677
0.0817871
0.139465
0.119629
0.0616455
-0.00610352
-0.015564
0.0192261
0.0750732
0.141296
0.134277
0.142517
0.133057
0.144958
0.155029
0.177917
0.177002
0.19043
0.187378
0.148621
0.142517
0.170288
0.153503
0.0997925
0.0106812
-0.163574
-0.0598145
0.154724
0.196533
0.170593
0.112
0.0177002
-0.0857544
-0.134583
-0.224304
-0.380859
-0.466919
-0.456848
-0.430908
-0.409851
-0.347595
-0.349426
-0.350342
-0.269775
-0.163879
-0.0213623
0.220337
0.342102
0.278015
0.217896
0.195312
0.157166
0.0823975
-0.017395
-0.050354
-0.0509644
-0.0567627
-0.123291
-0.171814
-0.186462
-0.132751
-0.0457764
0.0720215
0.162048
0.132141
0.0802612
0.0717163
0.0674438
0.0680542
0.0308228
0.0161743
0.0112915
-0.0222778
-0.0479126
-0.0570679
-0.0518799
-0.0302124
0.0204468
0.0689697
0.0875854
0.065918
0.0137329
0.0311279
0.0405884
0.0665283
0.0915527
0.065918
0.0378418
0.0430298
0.043335
0.0506592
0.0344849
0.0167847
0.00579834
-0.0115967
-0.0308228
-0.0552368
-0.0393677
-0.0149536
0.0265503
0.0753784
0.088501
0.133667
0.233765
0.329895
0.37384
0.327759
0.236206
0.130615
0.0866699
0.0793457
0.0509644
0.0735474
0.127563
0.133667
0.114136
0.0802612
0.121155
0.191345
0.247498
0.246887
0.149536
0.012207
-0.158997
-0.30304
-0.361023
-0.328369
-0.232849
-0.183411
-0.0915527
-0.0448608
-0.0558472
-0.122375
-0.166321
-0.171509
-0.170593
-0.14801
-0.0924683
-0.020752
0.00244141
-0.0271606
-0.0418091
-0.090332
-0.108948
-0.0720215
-0.0418091
-0.0619507
-0.0601196
0.00701904
0.0744629
0.140076
0.154419
0.120544
0.0579834
-0.00518799
-0.0149536
0.0283813
0.039978
0.072937
0.0744629
0.0643921
0.0686646
0.0665283
0.050354
0.017395
-0.00976562
-0.0497437
-0.0527954
-0.0308228
0.0524902
0.128784
0.130615
0.117493
0.126648
0.0805664
0.0332642
0.00579834
0.0195312
0.0701904
0.118408
0.158081
0.199585
0.240479
0.26062
0.21698
0.177917
0.120239
0.0897217
0.093689
0.0360107
-0.101624
-0.218811
-0.211182
-0.123596
-0.039978
-0.0439453
0.0012207
0.109558
0.198364
0.258179
0.20874
0.146179
0.067749
-0.0402832
-0.135803
-0.154724
-0.0973511
-0.0231934
0.0723267
0.12207
0.0967407
-0.00152588
-0.0408936
-0.0198364
-0.102234
-0.146179
-0.139771
-0.198059
-0.291138
-0.35553
-0.310364
-0.272827
-0.23468
-0.162048
-0.127869
-0.12146
-0.109558
-0.0808716
-0.0598145
-0.0653076
-0.0250244
0.0442505
0.0842285
0.0836182
0.0558472
0.0167847
-0.00671387
-0.00701904
0.00518799
0.0326538
0.0546265
0.0805664
0.0765991
0.045166
0.0790405
0.129395
0.122986
0.122986
0.114136
0.0927734
0.0354004
-0.0299072
-0.0747681
-0.0671387
-0.0540161
-0.0296021
-0.0323486
-0.0964355
-0.142212
-0.161133
-0.148926
-0.101318
0
0.067749
0.0311279
-0.0119019
-0.0189209
-0.071106
-0.143433
-0.0531006
-0.00152588
-0.067749
-0.090332
0.0317383
0.157166
0.264587
0.316162
0.346069
0.356445
0.361328
0.343018
0.246277
0.0854492
-0.124817
-0.227661
-0.248718
-0.176697
0.085144
0.325928
0.296936
0.088501
-0.137329
-0.271301
-0.3302
-0.325317
-0.254211
-0.098877
-0.020752
0.0390625
0.149536
0.192261
0.122375
0.00457764
-0.0854492
-0.0970459
-0.114746
-0.129395
-0.122681
-0.0491333
0.0665283
0.136414
0.160828
0.145569
0.0985718
0.00396729
-0.0860596
-0.111084
-0.124207
-0.0958252
-0.0958252
-0.11322
-0.121765
-0.113831
-0.0726318
-0.0088501
0.0769043
0.121765
0.108032
0.0686646
-0.0942993
-0.246887
-0.345154
-0.327148
-0.291138
-0.212708
-0.0827026
0.0216675
0.0949097
0.163269
0.229797
0.270996
0.23468
0.0939941
-0.00244141
-0.0567627
-0.0860596
-0.085144
-0.117798
-0.135193
-0.149231
-0.164185
-0.175171
-0.14679
-0.102539
-0.065918
-0.0119019
0.0482178
0.071106
0.0366211
-0.0335693
-0.0820923
-0.127258
-0.172424
-0.126648
-0.0125122
0.185242
0.371704
0.415344
0.371704
0.224304
0.0540161
-0.0488281
-0.0930786
-0.117188
-0.14679
-0.202942
-0.166626
-0.0656128
0.0308228
0.127869
0.18219
0.1297
0.050354
0.0271606
0.00640869
-0.0332642
-0.00915527
0.0384521
0.0204468
-0.0384521
-0.0714111
-0.0906372
-0.149231
-0.198669
-0.177612
-0.0115967
0.170593
0.247498
0.247498
0.26062
0.270386
0.249329
0.240479
0.274353
0.21637
0.0796509
-0.0509644
-0.188599
-0.246277
-0.279541
-0.259399
-0.201721
-0.173645
-0.137024
-0.124817
-0.148315
-0.0958252
-0.0332642
0.0848389
0.209656
0.299988
0.308533
0.266724
0.256653
0.191345
0.0906372
0.0216675
-0.0723267
-0.123291
-0.137024
-0.123596
-0.122986
-0.16449
-0.143127
-0.108948
-0.108948
-0.0875854
-0.020752
0.0524902
0.0875854
0.138855
0.135498
0.0549316
-0.0238037
-0.0186157
0.0714111
0.134583
0.150757
0.133057
0.0827026
0.00671387
-0.0320435
-0.0256348
-0.0466919
-0.0814819
-0.124817
-0.158386
-0.178223
-0.17334
-0.186157
-0.240173
-0.235901
-0.202942
-0.157166
-0.0588989
0.0738525
0.198364
0.238953
0.205383
0.0979614
0.0296021
-0.0167847
0.0152588
0.0552368
0.0708008
0.0479126
0.00244141
-0.0256348
-0.0112915
0.0183105
0.0579834
0.108948
0.179749
0.213623
0.25116
0.231628
0.134277
0.00457764
-0.0979614
-0.0942993
-0.0622559
-0.0845337
-0.154419
-0.218201
-0.219421
-0.195007
-0.171509
-0.112305
-0.0460815
-0.0372314
0.00366211
0.107422
0.147705
0.12207
0.0540161
0.00762939
-0.0192261
-0.0149536
-0.0311279
-0.0308228
-0.0457764
-0.10437
-0.0991821
-0.00396729
0.0744629
0.0946045
0.11322
0.106506
0.0646973
0.00335693
-0.0259399
0.0143433
0.108643
0.249939
0.420227
0.454102
0.35675
0.197754
0.0445557
-0.0643921
-0.107727
-0.128174
-0.185852
-0.245667
-0.270996
-0.238037
-0.0793457
0.0949097
0.154419
0.166931
0.209961
0.223083
0.186768
0.0973511
0.0256348
-0.0265503
-0.017395
-0.045166
-0.13092
-0.210876
-0.279236
-0.300598
-0.266724
-0.224304
-0.144958
0.00274658
0.13092
0.150757
0.127258
0.0491333
-0.027771
-0.00488281
0.062561
0.118103
0.160522
0.202026
0.211182
0.148315
0.0717163
0.0247192
0.00335693
-0.00244141
-0.0436401
-0.0701904
-0.135803
-0.189514
-0.157776
-0.0576782
0.0332642
0.0665283
-0.0119019
-0.13855
-0.19928
-0.223694
-0.145874
-0.09552
-0.0915527
-0.0933838
-0.0521851
0.0448608
0.123901
0.175171
0.140381
0.109558
0.0982666
0.0582886
0.0213623
0.0201416
0.0439453
0.0460815
0.0323486
0.0430298
0.055542
0.0238037
0.0289917
0.0296021
-0.098877
-0.237732
-0.302734
-0.290222
-0.188293
0.0146484
0.193176
0.331726
0.419922
0.40741
0.275879
0.134888
0.0439453
-0.0256348
-0.0592041
-0.0271606
0.0784302
0.17395
0.171814
0.141296
0.0524902
-0.108337
-0.216675
-0.271606
-0.263062
-0.189514
-0.0588989
0.118103
0.185852
0.153198
0.1474
0.123901
0.116272
0.131836
0.134583
0.0582886
0.0186157
-0.0396729
-0.117493
-0.085144
-0.0546265
-0.0671387
-0.120544
-0.132446
-0.104675
-0.114746
-0.126343
-0.138855
-0.128479
-0.0735474
-0.0546265
-0.0424194
-0.0189209
0.0268555
-0.0164795
-0.0576782
-0.0564575
-0.0350952
-0.0302124
-0.0408936
-0.0735474
-0.118408
-0.122986
-0.0765991
0
0.065918
0.090332
0.0912476
0.0692749
0.0680542
0.072937
0.0805664
0.0875854
0.0662231
0.0430298
0.0247192
0.00244141
-0.0704956
-0.0741577
-0.0305176
0.0137329
0.0534058
0.0698853
0.0634766
0.0231934
0.000915527
0.057373
0.154724
0.19989
0.18219
0.115051
0.0350952
0.0152588
0.0500488
0.13916
0.267029
0.39856
0.488892
0.462646
0.322266
0.0680542
-0.217896
-0.385742
-0.427551
-0.368347
-0.200806
-0.012207
0.122986
0.146484
0.0735474
0.022583
0.0012207
-0.0137329
-0.0256348
-0.0396729
-0.13855
-0.299988
-0.421143
-0.404053
-0.315552
-0.211487
-0.166321
-0.124512
-0.108643
-0.012207
0.0668335
0.123291
0.0888062
0.00488281
-0.010376
0.0292969
-0.0149536
-0.0244141
0.0595093
0.0845337
0.0860596
0.0448608
-0.0305176
-0.0753784
-0.0891113
-0.0384521
0.0756836
0.158386
0.203247
0.206604
0.187378
0.115967
0.0289917
0.017395
0.0289917
0.00976562
0.00396729
-0.0183105
-0.0189209
0.0332642
0.085144
0.127563
0.120544
0.071106
-0.00915527
-0.0552368
-0.0210571
0.0418091
0.0534058
0.0671387
0.0653076
0.0808716
0.0494385
-0.00335693
-0.0720215
-0.0845337
-0.00793457
0.0610352
0.102539
0.120239
0.130615
0.183411
0.1828
0.149536
0.085144
0.0378418
0.112305
0.245361
0.348511
0.426025
0.456848
0.40802
0.205688
-0.038147
-0.161133
-0.19043
-0.178833
-0.155334
-0.192566
-0.218506
-0.192566
-0.120544
-0.072937
-0.0796509
-0.0869751
-0.0820923
-0.0875854
-0.140686
-0.175171
-0.159302
-0.124817
-0.0790405
-0.0140381
0.0201416
0.0302124
-0.0552368
-0.162354
-0.192261
-0.213928
-0.205078
-0.152588
-0.0643921
-0.00732422
0.0424194
0.0518799
-0.0112915
-0.0778198
-0.104065
-0.0857544
-0.010376
0.0875854
0.159607
0.190735
0.182495
0.122986
0.0854492
0.0665283
0.0311279
-0.0595093
-0.149536
-0.205383
-0.228577
-0.202942
-0.0772095
0.0454712
0.124817
0.173645
0.16571
0.129395
0.0842285
0.0848389
0.16571
0.249634
0.262451
0.223999
0.196838
0.139771
0.0387573
-0.0473022
-0.0985718
-0.0717163
-0.0387573
-0.0418091
-0.0891113
-0.09552
-0.0494385
0.00823975
0.0302124
0.0485229
0.0765991
0.168762
0.25177
0.308838
0.274963
0.183411
0.0775146
-0.00701904
-0.0665283
-0.107117
-0.115051
-0.108032
-0.112
-0.102844
-0.0631714
-0.00457764
0.0643921
0.062561
-0.0128174
-0.0610352
-0.0546265
0.0140381
0.0741577
0.132751
0.204163
0.220337
0.118713
0.0595093
0.115967
0.0280762
-0.0106812
-0.0442505
-0.0827026
-0.0753784
-0.0689697
-0.072937
-0.167542
-0.223694
-0.227966
-0.185852
-0.161743
-0.162354
-0.126038
-0.0845337
-0.14801
-0.174866
-0.14679
-0.108643
-0.0445557
-0.0894165
-0.159912
-0.211792
-0.225525
-0.15564
0.0180054
0.153198
0.1828
0.135803
0.109253
0.110779
0.0778198
0.0604248
0.0790405
0.151367
0.158386
0.180359
0.247803
0.299683
0.291443
0.202637
0.0738525
0.00274658
-0.0424194
-0.135498
-0.14801
-0.119629
-0.0802612
-0.0323486
-0.00610352
-0.00823975
-0.0735474
-0.173645
-0.261536
-0.264893
-0.252075
-0.145569
0.0213623
0.0817871
0.100708
0.0961304
0.0906372
0.0790405
0.0866699
0.0915527
0.124512
0.144958
0.185852
0.228271
0.254211
0.19043
0.043335
-0.102844
-0.201111
-0.232239
-0.139465
0.119019
0.340881
0.422058
0.409851
0.252686
0.128784
0.0283813
-0.0765991
-0.151367
-0.200195
-0.228271
-0.246277
-0.255432
-0.220032
-0.157776
-0.125122
-0.101624
-0.0839233
-0.0372314
0.00274658
0.0476074
0.193787
0.34668
0.376587
0.277405
0.0772095
-0.141602
-0.364075
-0.376892
-0.321045
-0.243835
-0.161438
-0.0857544
-0.0881958
-0.146179
-0.166321
-0.214233
-0.247192
-0.13092
-0.0469971
0.00213623
0.071106
0.120544
0.166321
0.135193
0.0149536
-0.0238037
-0.050354
-0.0305176
0.00946045
0.000305176
-0.0390625
-0.0735474
-0.0744629
-0.00640869
0.0650024
0.0796509
0.0549316
0.0662231
0.144653
0.155945
0.144653
0.145569
0.124512
0.135498
0.119324
0.085144
-0.0228882
-0.176086
-0.226135
-0.265198
-0.232849
-0.114746
0.0189209
0.0671387
0.101929
0.187988
0.26123
0.307007
0.315552
0.252686
0.130615
0.020752
-0.0164795
-0.0479126
-0.125732
-0.198669
-0.25116
-0.267029
-0.271912
-0.231628
-0.225525
-0.209351
-0.156555
-0.0772095
-0.00762939
0.0360107
0.0744629
0.0897217
0.0735474
0.0827026
0.0680542
0.0372314
0.0772095
0.102844
0.083313
0.0247192
-0.03479
-0.0631714
-0.0869751
-0.0726318
0.0238037
0.184021
0.280457
0.289917
0.19989
0.0732422
-0.0930786
-0.228882
-0.301819
-0.229492
-0.126648
-0.0762939
-0.0680542
-0.0900269
-0.0738525
-0.0897217
-0.103455
-0.113525
-0.152893
-0.103149
0.0192261
0.127258
0.151367
0.188599
0.144348
0.0784302
0.0296021
-0.0186157
-0.0134277
-0.0210571
-0.055542
-0.0680542
-0.0582886
-0.0161743
0.0540161
0.122986
0.152283
0.106201
0.00610352
-0.0411987
-0.0265503
-0.0527954
-0.0686646
-0.0869751
-0.105286
-0.0595093
0.0183105
0.0515747
0.0561523
0.085144
0.0750732
0.101318
0.115967
0.117188
0.09552
0.0567627
0.0271606
0.0247192
0.00579834
-0.00335693
0.0338745
0.0769043
0.0390625
0
-0.0439453
-0.0961304
-0.104065
-0.0750732
-0.0466919
0.00610352
0.0637817
0.101013
0.0863647
0.0582886
0.0271606
-0.0146484
-0.0668335
-0.0717163
0
0.0857544
0.108337
0.0964355
0.148315
0.230408
0.278931
0.269775
0.252686
0.241699
0.187683
0.0909424
0.0167847
-0.00518799
-0.126038
-0.266418
-0.307922
-0.327148
-0.245667
-0.0756836
0.0387573
0.114441
0.187378
0.227356
0.195007
0.110779
0.0372314
-0.0164795
-0.0466919
-0.012207
0.0466919
0.0421143
-0.0210571
-0.112
-0.23407
-0.342407
-0.372314
-0.333252
-0.278625
-0.341187
-0.36377
-0.283203
-0.183105
-0.0650024
0.0518799
0.140991
0.138855
0.105896
0.090332
0.13031
0.157471
0.16571
0.120544
0.0695801
0.0204468
-0.0323486
-0.113525
-0.158997
-0.147095
-0.0854492
0.00183105
0.0643921
0.102844
0.101318
0.118103
0.0875854
0.0567627
0.0582886
0.0759888
0.0985718
0.119629
0.102539
0.101013
0.0827026
0.0601196
0.0360107
0.050354
0.0949097
0.16449
0.231628
0.273743
0.277405
0.262451
0.175781
0.0485229
-0.022583
-0.0604248
-0.111694
-0.143127
-0.127869
-0.0942993
-0.0772095
-0.00793457
0.0378418
0.0259399
0.00701904
-0.0158691
-0.0778198
-0.143738
-0.0650024
0.055542
0.0460815
0
-0.00549316
0.0088501
0.0265503
0.0579834
0.0283813
-0.0210571
-0.0424194
-0.0262451
-0.0448608
-0.0479126
-0.0802612
-0.0958252
-0.10376
-0.115356
-0.115967
-0.12146
-0.107117
-0.117493
-0.0704956
0.0469971
0.180054
0.264282
0.282593
0.218506
0.127563
0.00274658
-0.0881958
-0.117798
-0.0750732
-0.0326538
0.0448608
0.0610352
0.123596
0.144958
0.0802612
-0.0192261
-0.010376
0.0598145
0.0671387
0.0735474
0.062561
0.0750732
0.102539
0.126953
0.102844
0.0549316
-0.00457764
-0.0314331
-0.0576782
-0.134583
-0.111084
-0.0152588
0.0811768
0.117798
0.0888062
0.050354
0.00488281
-0.0567627
-0.0961304
-0.0839233
-0.0585938
-0.0283813
0.00427246
0.00732422
-0.00793457
0.0405884
0.0946045
0.102539
0.0869751
0.0247192
-0.0390625
-0.0396729
0.000610352
0.0595093
0.0872803
0.147095
0.213623
0.187378
0.0418091
-0.0161743
-0.0228882
-0.0628662
-0.0622559
-0.0714111
-0.0317383
-0.0158691
0
-0.0158691
-0.0411987
-0.112305
-0.158691
-0.167542
-0.127869
-0.0732422
-0.098877
-0.0680542
0.0247192
0.162354
0.257568
0.346069
0.336914
0.228577
0.0473022
-0.0808716
