0.00274658
0.0335693
-0.0164795
0.0164795
0.0500488
0.0680542
0.071106
0.0860596
0.105591
0.126038
0.138245
0.107422
0.107117
0.110168
0.149231
0.282288
0.376892
0.391846
0.537415
0.700684
0.688782
0.707397
0.679626
0.443115
0.0888062
-0.275879
-0.578918
-0.717468
-0.789795
-0.81543
-0.796814
-0.682678
-0.523987
-0.393677
-0.293274
-0.248718
-0.177917
-0.09552
-0.0915527
-0.0598145
-0.0756836
-0.0262451
0.0354004
0.0619507
0.107422
0.158997
0.131836
0.0515747
-0.0546265
-0.032959
0.0500488
0.150146
0.270996
0.331421
0.19165
0.108948
0.141907
0.216675
0.221558
0.130005
-0.0247192
-0.101318
-0.136108
-0.157166
-0.169067
-0.132141
-0.0332642
-0.0320435
-0.0665283
-0.0369263
0.0515747
0.177612
0.298157
0.387573
0.330505
0.125427
-0.0967407
-0.198059
-0.201416
-0.10376
0.0839233
0.26947
0.307922
0.260925
0.177612
0.100403
0.0845337
0.125427
0.184326
0.138855
-0.0430298
-0.173645
-0.1651
-0.189209
-0.247192
-0.264282
-0.315247
-0.431519
-0.519714
-0.506592
-0.361633
-0.175171
-0.148621
-0.20752
-0.119324
0.0427246
0.0796509
0.0918579
0.0946045
0.0473022
0.0558472
0.0750732
0.136108
0.324707
0.582275
0.74646
0.834045
0.950317
0.995483
0.818176
0.541992
0.195007
-0.224609
-0.477295
-0.606079
-0.618591
-0.562134
-0.584412
-0.670166
-0.627136
-0.480957
-0.291138
-0.137024
0.0161743
0.114441
0.105591
0.112305
0.102844
0.0143433
-0.111694
-0.182495
-0.214233
-0.112915
0.11261
0.357056
0.570068
0.514832
0.213623
-0.0674438
-0.127258
0.0634766
0.308533
0.454712
0.462646
0.353394
0.202637
0.118103
0.0170898
-0.130615
-0.256348
-0.289001
-0.309753
-0.426331
-0.452271
-0.375977
-0.249939
-0.0747681
-0.00610352
-0.0448608
-0.0698853
-0.0195312
0.127563
0.207214
-0.0430298
-0.256958
-0.264587
-0.191345
-0.0820923
-0.0311279
0.0335693
0.093689
0.15564
0.0811768
0.0320435
0.137634
0.0357056
-0.108337
-0.017395
0.223999
0.460815
0.52887
0.406799
0.153198
0.0457764
-0.0491333
-0.116272
-0.147705
-0.19165
-0.21637
-0.285645
-0.228882
-0.119019
-0.0827026
-0.108032
-0.140381
-0.132141
-0.0637817
-0.00274658
-0.0265503
-0.0564575
-0.111694
-0.0497437
0.0253296
0
0.00549316
0.0442505
0.0967407
0.143433
0.223083
0.318604
0.288391
0.215149
0.132141
0.0762939
0.0180054
-0.0845337
-0.150757
-0.148621
-0.135803
-0.00793457
0.202332
0.227966
0.167847
0.140381
0.102539
0.0686646
0.0622559
0.00823975
-0.0839233
-0.122681
-0.14679
-0.136719
-0.102234
-0.0881958
-0.0531006
-0.00152588
0.0790405
0.123901
0.0921631
0.0387573
0.107727
0.201721
0.284424
0.331116
0.250549
0.146179
0.249634
0.456238
0.508423
0.527649
0.429993
0.249634
-0.0753784
-0.339355
-0.554504
-0.603333
-0.517273
-0.398865
-0.235596
-0.119019
-0.159302
-0.208435
-0.26123
-0.317078
-0.365906
-0.414734
-0.39032
-0.264893
-0.010376
0.231628
0.297546
0.337219
0.42572
0.350342
0.33783
0.311279
0.135498
-0.0344849
-0.0799561
-0.0421143
0.0994873
0.219421
0.279541
0.207214
0.108032
-0.0302124
-0.125732
-0.188293
-0.186157
-0.116882
-0.126038
-0.134583
-0.062561
0.00701904
0.045166
0.00152588
-0.0720215
-0.105286
-0.137939
-0.142822
-0.12207
-0.0405884
0.0491333
0.118713
0.192871
0.26001
0.258789
0.136414
0.130615
0.0680542
-0.0219727
-0.0512695
-0.132446
-0.193176
-0.139465
-0.0714111
0.0482178
0.0369263
-0.0482178
-0.124512
-0.221863
-0.273438
-0.222473
-0.154114
-0.0970459
0.00366211
0.228882
0.327454
0.322876
0.215759
0.105896
0.0408936
0.0756836
0.123596
0.198669
0.286865
0.322266
0.279541
0.215149
0.141296
0.122375
0.136414
0.145264
0.225525
0.270691
0.276184
0.418396
0.554199
0.492859
0.31189
-0.00701904
-0.39032
-0.570984
-0.582581
-0.520325
-0.51178
-0.52124
-0.52124
-0.421448
-0.320435
-0.304871
-0.229187
-0.140381
-0.115967
-0.0646973
0.0479126
0.206909
0.331421
0.409546
0.397339
0.154724
-0.0723267
-0.274658
-0.357666
-0.322876
-0.189819
-0.0436401
0.0482178
0.0424194
-0.0671387
-0.142517
-0.18158
-0.110474
0.0115967
0.150146
0.331421
0.455017
0.450745
0.35675
0.212097
-0.0161743
-0.156555
-0.196838
-0.188293
-0.189514
-0.178223
-0.205383
-0.176086
-0.128479
-0.0946045
-0.113525
-0.093689
-0.0131226
0.0408936
0.12146
0.137329
0.174561
0.209961
0.197449
0.238342
0.375671
0.577698
0.636902
0.69458
0.593262
0.284424
-0.0439453
-0.319824
-0.494995
-0.482483
-0.352783
-0.269775
-0.249634
-0.195618
-0.1651
-0.19989
-0.271606
-0.356445
-0.388794
-0.34729
-0.192871
0.0311279
0.333862
0.606995
0.678406
0.515442
0.157166
-0.0949097
-0.150452
-0.0836182
-0.0115967
-0.00152588
-0.0570679
-0.0698853
-0.0952148
-0.139465
0
0.343018
0.436707
0.209045
-0.0250244
-0.240479
-0.329895
-0.340576
-0.30304
-0.299072
-0.295715
-0.294189
-0.301208
-0.198364
-0.133362
-0.113525
-0.100098
-0.12207
-0.104065
-0.039978
0.00152588
0.0228882
0.050354
-0.0100708
-0.0125122
0.0299072
0.0540161
0.0942993
0.0686646
-0.0259399
-0.0448608
-0.0161743
0.0860596
0.170288
0.178833
0.137634
0.0668335
-0.0289917
-0.0570679
-0.0497437
0.0143433
0.195923
0.375671
0.450745
0.450134
0.351562
0.181274
0.211182
0.318604
0.389709
0.551453
0.617676
0.691833
0.591431
0.405884
0.360107
0.265503
-0.0219727
-0.245667
-0.33905
-0.392456
-0.351868
-0.319214
-0.330811
-0.413208
-0.509644
-0.58136
-0.523376
-0.333862
-0.231323
-0.209961
-0.19043
-0.284729
-0.404968
-0.402832
-0.284119
-0.0942993
0.118713
0.215759
0.266724
0.227661
0.123291
0.0219727
0.017395
0.0814819
0.145569
0.168762
0.175171
0.102844
0.0521851
0.0213623
-0.0302124
-0.137939
-0.0930786
0.03479
0.158386
0.273438
0.272217
0.168152
0.0830078
0.0378418
0.0564575
0.0552368
-0.0241089
-0.0012207
0.0814819
0.0970459
0.0564575
0.112305
0.166931
0.144958
0.0289917
-0.122681
-0.162354
-0.0732422
-0.0247192
0.0448608
0.112305
0.114441
0.0793457
0.0317383
0.171204
0.312195
0.557556
0.65979
0.526428
0.226746
-0.071106
-0.285034
-0.410461
-0.451965
-0.364075
-0.323181
-0.329285
-0.352783
-0.46051
-0.401001
-0.185852
0.0973511
0.283203
0.367126
0.440979
0.579834
0.547485
0.238037
-0.0463867
-0.166321
-0.126648
0.0286865
0.107727
0.0115967
-0.175171
-0.342407
-0.332642
-0.302429
-0.317688
-0.277405
-0.250549
-0.296021
-0.286255
-0.184937
-0.0973511
-0.00244141
0.0540161
0.12207
0.103149
0.0741577
0.0506592
0.0219727
-0.0250244
-0.0552368
-0.045166
-0.0100708
0.104675
0.216675
0.320435
0.389099
0.384827
0.206299
0.038147
0.115967
0.296326
0.422668
0.495605
0.370789
0.102844
-0.197449
-0.473633
-0.576782
-0.510559
-0.379333
-0.0601196
0.105286
0.170593
0.127563
-0.0360107
-0.235596
-0.1297
0.0558472
0.162964
0.265808
0.26947
0.115356
-0.050354
-0.123901
-0.0878906
-0.0231934
-0.0119019
-0.0283813
-0.0918579
-0.273743
-0.353394
-0.335693
-0.23468
-0.105286
0.0128174
0.134277
0.174866
0.103455
-0.0146484
-0.0759888
-0.0836182
-0.106506
-0.0476074
0.102539
0.183411
0.223694
0.20874
0.171204
0.101624
0.0100708
-0.0430298
-0.0704956
-0.0177002
0.0549316
-0.0341797
-0.0790405
-0.0524902
0.0393677
0.150146
0.204773
0.269775
0.32074
0.39093
0.333862
0.161133
0.0161743
-0.128479
-0.305176
-0.471191
-0.473938
-0.142822
0.320435
0.628357
0.627441
0.444641
0.172119
0.00335693
-0.145569
-0.285339
-0.274048
-0.270996
-0.268555
-0.19165
-0.168457
-0.166626
-0.200195
-0.240784
-0.278015
-0.256653
-0.278625
-0.307922
-0.279236
-0.173645
0.0723267
0.308533
0.571594
0.774841
0.811462
0.626221
0.356445
0.147095
0.03479
-0.00274658
-0.0222778
-0.133057
-0.332947
-0.48584
-0.498047
-0.434875
-0.2771
-0.0167847
0.240173
0.218811
0.0479126
-0.117798
-0.178223
-0.159912
-0.12085
-0.126648
-0.141602
-0.167542
-0.0479126
0.0564575
0.0839233
0.115967
0.130615
0.0845337
-0.00854492
-0.0970459
-0.140991
-0.145569
-0.123901
-0.108643
-0.0906372
-0.0402832
0.0439453
0.140991
0.201721
0.21698
0.263977
0.492859
0.547791
0.380554
0.240479
0.0863647
0.017395
-0.0314331
-0.0656128
-0.102234
-0.160217
-0.238647
-0.300293
-0.282593
-0.175171
-0.0991821
-0.09552
-0.202942
-0.249023
-0.150757
-0.0445557
0.0631714
0.227966
0.33905
0.322266
0.125122
0.0167847
-0.108643
-0.222168
-0.184631
0.0088501
0.136108
0.135498
0.050354
-0.0210571
-0.0582886
0.00915527
0.0289917
-0.0222778
-0.0143433
-0.0100708
-0.0125122
-0.0894165
-0.180359
-0.147095
-0.136108
-0.143433
-0.14679
-0.129395
-0.0549316
0.0973511
0.237732
0.21759
0.105896
-0.045166
-0.183105
-0.240173
-0.278015
-0.301514
-0.196533
-0.0784302
0.0143433
0.131836
0.177612
0.0732422
-0.0424194
-0.0534058
-0.0100708
0.0576782
0.150757
0.161743
0.115051
0.0927734
0.0546265
-0.0534058
0.00274658
0.122681
0.227966
0.344543
0.367432
0.19165
0.0445557
-0.129089
-0.214844
-0.205383
-0.144958
-0.0222778
0.0326538
0.0161743
-0.0537109
-0.128479
-0.140381
-0.115967
-0.0512695
0.00274658
-0.00305176
0.06073
0.129395
0.161743
0.0213623
-0.0894165
-0.126953
-0.109253
-0.0296021
0.0521851
0.123291
0.13916
0.235596
0.285645
0.292664
0.319824
0.124817
-0.206604
-0.39093
-0.444641
-0.423584
-0.335999
-0.218201
-0.118103
-0.0991821
-0.20874
-0.238342
-0.134277
-0.0814819
-0.127258
-0.170898
-0.0494385
0.108337
0.204163
0.190125
0.185852
0.208435
0.184326
0.106506
0.0543213
-0.0088501
-0.0186157
0.0454712
0.0653076
0.085144
0.164185
0.248108
0.325317
0.211792
-0.0823975
-0.46936
-0.565186
-0.439758
-0.277405
-0.187073
-0.123596
-0.0314331
0.0265503
0.10376
0.234375
0.375671
0.354919
0.177917
0.122375
0.238647
0.247192
0.196533
0.155945
0.135193
0.0643921
0.0195312
-0.0332642
-0.00457764
0.0924683
-0.0265503
-0.229492
-0.279846
-0.277405
-0.188293
-0.00732422
0.169678
0.0973511
0
-0.0524902
-0.117798
-0.130615
-0.0845337
0.0308228
0.194702
0.343018
0.399475
0.380554
0.263062
-0.115967
-0.43335
-0.524902
-0.42572
-0.122681
0.203247
0.258484
0.253601
0.280151
0.0482178
-0.361633
-0.357056
-0.209351
-0.093689
0.00823975
0.170898
0.16449
0.0915527
0.0924683
0.0234985
-0.162659
-0.367432
-0.474243
-0.488586
-0.460205
-0.415344
-0.350952
-0.176086
-0.0183105
0.114136
0.201721
0.18158
0.101929
0.00457764
-0.136108
-0.0231934
0.144043
0.259094
0.276794
0.128784
-0.0109863
-0.0793457
-0.0192261
0.00946045
0.0119019
0.0747681
0.0418091
0.000305176
-0.0582886
-0.126648
-0.175171
-0.204163
-0.18219
-0.117188
0.0231934
0.241394
0.329285
0.345764
0.187378
0.0375366
0.0454712
0.0274658
-0.0335693
0.0592041
0.122986
0.101929
0.100098
0.0772095
0.0802612
0.0839233
0.0582886
0.0335693
0.000915527
-0.0128174
0.0408936
0.112
0.203857
0.221252
0.184021
0.167847
0.193481
0.184021
0.1828
0.154419
0.14679
0.045166
0.0665283
0.257568
0.404358
0.349121
0.133972
-0.0198364
-0.123291
-0.300598
-0.350952
-0.331726
-0.352783
-0.296326
-0.32196
-0.461121
-0.377197
-0.134277
0.0192261
0.0308228
-0.0836182
-0.389404
-0.362549
0.0158691
0.229492
0.265198
0.0564575
-0.0860596
-0.0427246
-0.0161743
-0.0561523
-0.0997925
-0.129089
-0.15686
-0.164795
-0.13855
-0.131531
-0.0817871
-0.0137329
-0.0332642
-0.0219727
0.0772095
0.162354
0.158386
0.217285
0.323486
0.320129
0.246887
0.190125
0.185852
0.25177
0.297852
0.264893
0.256653
0.202026
0.102539
-0.0305176
-0.0613403
-0.0515747
-0.0256348
-0.0540161
-0.0979614
-0.141602
-0.1828
-0.197144
-0.19989
-0.20813
-0.166321
-0.0836182
-0.0296021
-0.0686646
-0.166931
-0.198669
-0.135803
-0.104675
-0.2005
-0.213928
-0.0463867
0.154114
0.237427
0.161438
-0.00762939
-0.117493
-0.0839233
-0.0515747
0.133057
0.466309
0.602722
0.602417
0.69397
0.525818
0.306091
0.191345
0.0186157
-0.218811
-0.247192
-0.206604
-0.224915
-0.272217
-0.242615
-0.130615
0.0775146
0.260315
0.321045
0.194702
-0.134888
-0.51239
-0.54657
-0.385742
-0.24353
-0.151672
-0.159607
-0.132751
-0.0411987
-0.0384521
-0.0186157
0.0701904
-0.0732422
-0.227356
-0.221252
-0.0692749
0.192566
0.420837
0.545349
0.418701
0.0912476
-0.252686
-0.420227
-0.386658
-0.239563
-0.0405884
0.0912476
0.0796509
-0.0268555
0.043335
0.208435
0.266113
0.159302
-0.00488281
-0.0668335
-0.072937
-0.0799561
-0.0515747
-0.0222778
0.0244141
0.0558472
0.0881958
0.0839233
0.0610352
0.0424194
0.00152588
-0.0619507
-0.110474
-0.14679
-0.176392
-0.149536
-0.0741577
0.0387573
0.161133
0.234985
0.19928
0.138855
0.0537109
-0.0653076
-0.184326
-0.218201
-0.210266
-0.178528
-0.146484
-0.0613403
-0.00457764
0.0112915
0.0564575
0.164795
0.243835
0.277405
0.214233
0.144043
0.0811768
-0.00854492
-0.0375366
-0.0500488
-0.102844
-0.140381
-0.0631714
0.112915
0.259094
0.257874
0.17334
0.0723267
0.114136
0.196838
0.25238
0.324402
0.131531
-0.263062
-0.293884
0.0427246
0.26001
0.314026
0.257568
0.103149
-0.140686
-0.245056
-0.196533
-0.108032
-0.0515747
-0.0823975
-0.161438
-0.265808
-0.378723
-0.394287
-0.30426
-0.0219727
0.105591
0.0985718
0.135498
0.119324
0.0198364
-0.0167847
0.0302124
0.0723267
0.148315
0.294495
0.359802
0.355835
0.344238
0.292358
0.125427
-0.0442505
-0.0796509
-0.32196
-0.660706
-0.617065
-0.320129
-0.0900269
-0.0582886
-0.105591
-0.202942
-0.27832
-0.332336
-0.271912
-0.151672
0.06073
0.348816
0.535278
0.406494
0.21637
0.0326538
-0.207214
-0.245361
-0.26123
-0.195007
-0.0299072
0.118103
0.308228
0.653381
0.970764
1.0968
0.907898
0.583191
-0.0143433
-0.444946
-0.428772
-0.318298
-0.401306
-0.488892
-0.430298
-0.368042
-0.312805
-0.318909
-0.252686
-0.232544
-0.187683
-0.0753784
0.0375366
0.109558
0.110474
0.101929
0.121155
0.141602
0.0814819
-0.0521851
-0.244141
-0.364685
-0.231628
0.0479126
0.296326
0.357971
0.0634766
-0.110474
0.0869751
0.333557
0.558472
0.476074
0.062561
-0.234985
-0.317993
-0.4599
-0.582275
-0.571899
-0.372009
-0.144043
0.020752
0.274658
0.529785
0.473022
0.203857
-0.00854492
-0.0802612
0.146179
0.273743
0.259094
0.0927734
-0.0653076
-0.0320435
0.0863647
0.151672
0.236206
0.0747681
-0.153503
-0.267944
-0.305786
-0.253601
-0.202026
-0.0854492
-0.0521851
-0.0265503
0.00793457
0.0704956
0.209961
0.235901
0.1474
-0.11261
-0.426636
-0.330505
0.0402832
0.374451
0.487061
0.409546
0.170593
-0.0778198
-0.209656
-0.23407
-0.205383
-0.062561
0.0796509
0.112
-0.0500488
-0.172119
-0.178528
-0.0378418
0.183716
0.291443
0.320129
0.315857
0.296021
0.112305
-0.0234985
-0.0534058
-0.0308228
-0.0247192
-0.0830078
-0.209656
-0.206604
-0.0949097
-0.0518799
-0.0888062
-0.00610352
0.0674438
0.101929
0.0524902
0.0241089
-0.0186157
0.00335693
0.0424194
0.0778198
0.118103
0.0991821
0.116882
0.116272
0.102539
0.107727
-0.0012207
-0.24353
-0.252991
-0.142822
-0.015564
0.310364
0.676575
0.808411
0.777588
0.556335
-0.130005
-0.431519
-0.185242
-0.0125122
-0.150452
-0.389404
-0.417786
-0.511169
-0.574036
-0.540466
-0.357971
-0.115356
-0.0689697
-0.111694
-0.145874
-0.153198
-0.141296
-0.14801
-0.126038
-0.0314331
0.0863647
0.169678
0.108337
0.093689
0.0735474
0.0427246
0.113831
0.164185
0.191956
0.244751
0.285339
0.131836
0
-0.0396729
-0.0576782
-0.0521851
-0.0323486
0.0390625
0.203857
0.404663
0.49408
0.490417
0.398865
0.0790405
-0.19104
-0.317078
-0.305481
-0.26825
-0.130615
0.00305176
-0.0143433
-0.0790405
-0.1297
-0.190125
-0.13092
0.154724
0.348816
0.425415
0.379028
0.159302
0.0808716
0.393372
0.67749
0.791321
0.703125
0.2005
-0.407104
-0.544739
-0.436707
-0.303955
-0.215149
-0.169067
-0.168152
-0.282288
-0.246887
0.0354004
0.466614
0.752258
0.812378
0.477295
-0.0680542
-0.411682
-0.506592
-0.548096
-0.492249
-0.441895
-0.455627
-0.488892
-0.553284
-0.529785
-0.363464
-0.141602
-0.00976562
0.00549316
0.0271606
-0.00823975
-0.0732422
-0.0631714
-0.0292969
0.0189209
0.153198
0.201721
0.131836
0.0765991
0.0115967
-0.0714111
-0.0491333
0.0473022
0.125427
0.145874
0.090332
0.0387573
0.113525
0.387268
0.730286
0.873108
0.715637
0.377808
-0.00457764
-0.113525
-0.126648
-0.191345
-0.226746
-0.230103
-0.339355
-0.415039
-0.440979
-0.415955
-0.347595
-0.244446
-0.116272
0.00335693
0.0430298
0.062561
0.130615
0.26062
0.416565
0.541992
0.718994
0.816956
0.461426
0.0524902
-0.232239
-0.411072
-0.272522
0.0192261
0.236511
0.112305
-0.246277
-0.481262
-0.454407
-0.325012
-0.162964
-0.0933838
-0.162964
-0.30426
-0.411377
-0.367737
-0.243225
-0.186462
0.0488281
0.309448
0.618286
0.802612
0.951233
0.937805
0.683289
0.226746
-0.167236
-0.370789
-0.440979
-0.414124
-0.321045
-0.293274
-0.20813
-0.0778198
0.0744629
0.090332
-0.0341797
-0.3125
-0.331421
-0.158997
-0.0906372
-0.0460815
0.027771
0.126648
0.173035
0.119934
0.0271606
-0.126038
-0.299683
-0.414734
-0.375061
-0.230408
-0.09552
-0.0344849
-0.0958252
-0.195618
-0.242615
-0.224304
-0.178528
-0.126038
-0.0469971
0.0134277
0.0375366
0.110474
0.133667
0.0485229
-0.0515747
-0.154419
-0.215454
-0.211487
-0.0949097
0.122986
0.35675
0.485535
0.433655
0.335693
0.178223
-0.0366211
-0.137024
-0.186462
-0.169678
-0.0634766
0.0463867
0.116882
0.0476074
0.00396729
-0.0457764
-0.0961304
-0.139465
-0.142822
-0.0701904
0.112
0.395813
0.652161
0.847473
0.85907
0.879822
0.671692
0.335388
0.0854492
-0.155334
-0.297546
-0.342407
-0.316162
-0.328979
-0.279846
-0.244751
-0.248413
-0.177307
-0.138855
-0.167542
-0.201416
-0.25177
-0.243225
-0.27771
-0.272522
-0.204773
-0.127258
-0.144348
-0.111084
-0.0595093
-0.050354
-0.0857544
-0.139465
-0.160828
-0.189819
-0.162659
-0.108337
0.0228882
0.165405
0.179443
0.0448608
-0.0488281
-0.0656128
-0.093689
-0.0839233
-0.0198364
0.170593
0.304871
0.279541
0.231018
0.183105
0.0872803
0.0402832
0.0088501
-0.0665283
-0.0671387
-0.0894165
-0.152283
-0.0930786
-0.0149536
0.0540161
0.114441
0.162659
0.197449
0.214539
0.242004
0.315552
0.379639
0.361938
0.331726
0.38269
0.383606
0.233459
-0.0274658
-0.1651
-0.115356
0.0183105
0.146179
0.224915
0.310669
0.172119
-0.168457
-0.492249
-0.715332
-0.784912
-0.704346
-0.507202
-0.26947
-0.114136
-0.0387573
-0.0320435
-0.0213623
0.0723267
0.107117
0.0848389
0.0445557
-0.0296021
-0.0637817
0.043335
0.116882
0.154114
0.155029
0.120239
0.116577
0.142212
0.160828
0.112915
0.0384521
-0.00518799
-0.0497437
-0.0997925
-0.10498
-0.128479
-0.152893
-0.188904
-0.180664
-0.141602
-0.0283813
0.115051
0.196533
0.251465
0.204163
0.153503
0.0753784
0.0485229
0.113525
0.160217
0.227661
0.301208
0.245972
0.0805664
-0.0326538
-0.266418
-0.475769
-0.50354
-0.383606
-0.281982
-0.188599
0.0219727
0.134888
0.13092
0.134583
0.136108
0.115662
0.134277
0.152283
0.187683
0.1828
0.202637
0.267029
0.166321
0.0088501
-0.00335693
0.0311279
0.101929
0.0704956
0.0534058
0.0595093
0.0662231
0.0924683
0.159912
0.12146
-0.0088501
-0.232849
-0.392456
-0.385437
-0.229797
-0.0823975
-0.00976562
-0.0787354
-0.167542
-0.191956
-0.172119
-0.0836182
0.0784302
0.172424
0.210266
0.312195
0.308228
0.247803
0.173035
0.109253
-0.0146484
-0.137939
-0.18158
-0.180664
-0.128784
-0.0814819
0.0518799
0.155945
0.175171
0.125122
0.0997925
0.131836
0.161438
0.163269
0.0247192
-0.144653
-0.212708
-0.332642
-0.378418
-0.186462
-0.00183105
0.187683
0.296631
0.201111
0.0253296
-0.113831
-0.198059
-0.224915
-0.196228
-0.175476
-0.144653
-0.0991821
-0.0982666
-0.0396729
0.0375366
0.0924683
0.170593
0.179443
0.181274
0.0982666
-0.0341797
-0.121155
-0.119629
-0.0759888
0.00946045
-0.0228882
-0.0579834
-0.0805664
-0.128479
-0.125427
0.0354004
0.12085
0.0753784
-0.00610352
-0.0613403
0.000610352
0.0939941
0.144958
0.154419
0.104675
0.0283813
-0.0378418
-0.0192261
-0.00152588
0.0140381
0.0460815
0.022583
-0.0262451
0.0106812
0.0686646
0.0549316
0.090332
0.197144
0.168152
0.201111
0.307922
0.276794
0.134888
0.0271606
-0.137939
-0.239868
-0.219421
-0.13092
-0.126038
-0.19989
-0.276489
-0.314636
-0.292358
-0.260315
-0.242615
-0.192566
-0.0775146
-0.0634766
-0.103149
-0.121765
0.00854492
0.170288
0.13092
0.106201
0.15564
0.258179
0.26123
0.201416
0.287781
0.280457
0.169983
0.108643
0.0790405
-0.0466919
-0.139465
-0.0210571
0.178223
0.253601
0.38147
0.382385
0.228882
0.110474
-0.112
-0.319519
-0.329895
-0.279236
-0.273132
-0.288086
-0.245667
-0.207825
-0.208435
-0.159912
-0.0732422
-0.0231934
-0.0222778
-0.0814819
-0.173645
-0.232239
-0.205383
-0.0686646
0.0817871
0.195923
0.271912
0.224304
0.157776
0.0863647
0.0308228
0.0906372
0.242615
0.267334
0.170288
0.0222778
-0.0854492
-0.15625
-0.198059
-0.193481
-0.14679
-0.0759888
-0.00183105
-0.0134277
-0.0491333
-0.00274658
0.0213623
-0.0167847
-0.0445557
0.0515747
0.164795
0.194397
0.110168
0.0421143
0.0723267
0.149536
0.208435
0.265808
0.335693
0.343323
0.2948
0.172424
-0.012207
-0.112
-0.194092
-0.204163
0.0531006
0.288696
0.507507
0.571594
0.502625
0.284424
0.00427246
-0.332336
-0.470581
-0.474854
-0.50415
-0.424194
-0.289001
-0.252075
-0.169983
-0.109558
-0.0927734
-0.186462
-0.264893
-0.288391
-0.249329
-0.183716
-0.0354004
0.140686
0.236511
0.252075
0.180664
0.0439453
-0.108948
-0.176086
-0.18219
-0.189514
-0.224915
-0.157166
-0.0427246
0.0524902
0.101013
0.153198
0.284424
0.343628
0.345459
0.246277
0.112915
0.00701904
-0.12207
-0.21698
-0.167847
-0.0463867
0.0482178
0.0897217
0.0704956
0
-0.00244141
0.0598145
0.108643
0.142517
0.158386
0.134583
0.0720215
-0.00762939
-0.0436401
0.00518799
0.0698853
0.166626
0.294495
0.326233
0.307617
0.264282
0.169678
0.0915527
0.0442505
0.0537109
0.0640869
0.0299072
0.0109863
0.0088501
0.0430298
0.10437
0.19043
0.259705
0.275269
0.122986
0.0119019
0.102844
0.167542
0.206604
0.279236
0.348206
0.245361
0.0756836
-0.0549316
-0.253296
-0.338745
-0.217896
-0.137939
-0.143738
-0.168762
-0.233459
-0.247803
-0.25116
-0.217896
-0.177612
-0.196533
-0.26947
-0.3125
-0.306702
-0.193787
-0.125122
-0.119019
-0.0595093
-0.0531006
-0.0802612
-0.0686646
-0.0271606
0.000915527
0.0506592
0.0418091
-0.00152588
-0.00488281
0.0131226
0.0918579
0.126648
0.0961304
0.11261
0.166321
0.200195
0.168152
0.0646973
0.00518799
0.0479126
0.0790405
0.110779
0.135193
0.0427246
-0.0708008
-0.0500488
0.085144
0.215149
0.275269
0.26825
0.328369
0.44281
0.38269
0.186462
0.0744629
-0.134888
-0.40741
-0.567627
-0.367432
-0.0830078
0.151367
0.243835
0.158081
0.0894165
0.117493
0.231018
0.194092
0.146179
0.13092
-0.0283813
-0.190735
-0.238647
-0.22583
-0.204773
-0.256042
-0.280457
-0.240479
-0.202637
-0.143127
-0.0918579
-0.0137329
0.0543213
-0.00671387
-0.0973511
-0.129089
-0.119019
-0.0830078
-0.125732
-0.161133
-0.10376
0.0183105
0.0906372
0.14679
0.187378
0.216675
0.194092
0.102539
0.0253296
0.0421143
0.117493
0.256653
0.314636
0.196228
0.0619507
-0.0369263
-0.132751
-0.169983
-0.128174
-0.0717163
-0.0857544
-0.11322
-0.0231934
0.142822
0.347595
0.496521
0.451965
0.283508
0.171204
0.101624
-0.065918
-0.21759
-0.309448
-0.495911
-0.600586
-0.559387
-0.366821
-0.16449
-0.10437
-0.178833
-0.194702
-0.245972
-0.23407
-0.0222778
0.229187
0.375671
0.505981
0.567322
0.351868
0.1474
0.0238037
-0.0631714
-0.110474
-0.027771
0.039978
0.0653076
0.148315
0.197449
0.207214
0.180054
0.062561
-0.0012207
-0.0924683
-0.121155
-0.107727
-0.0698853
-0.045166
-0.0286865
-0.0241089
-0.0512695
-0.14679
-0.204773
-0.234375
-0.262756
-0.286255
-0.274048
-0.179749
-0.0875854
-0.125427
-0.0888062
-0.0344849
-0.00762939
-0.0265503
-0.00915527
0.0796509
0.163879
0.175476
0.145264
0.0857544
-0.0137329
-0.173645
-0.254517
-0.231018
-0.134888
-0.0283813
0.151367
0.339661
0.42572
0.462952
0.473633
0.386658
0.109253
-0.11261
-0.177917
-0.17395
-0.188599
-0.259399
-0.362549
-0.408936
-0.325928
-0.178833
0.0216675
0.164185
0.219421
0.316162
0.469666
0.578613
0.529785
0.371704
0.0418091
-0.245667
-0.397949
-0.410461
-0.372314
-0.270691
-0.160828
-0.0100708
0.107117
0.13031
0.115967
0.155945
0.226746
0.221558
0.194092
0.150757
0.085144
-0.0106812
-0.121155
-0.193481
-0.243225
-0.280762
-0.327454
-0.317688
-0.189514
-0.071106
0.0305176
0.0985718
0.0540161
0.00488281
0.0164795
0.065918
0.032959
0.00549316
-0.0646973
-0.138855
-0.131836
-0.0979614
-0.0469971
-0.00946045
-0.0411987
0.0592041
0.192566
0.202942
0.159302
0.0436401
-0.0320435
-0.0088501
0.0195312
0.0790405
0.228577
0.309753
0.261536
0.101013
-0.116577
-0.231628
-0.283508
-0.285034
-0.233765
-0.101318
0.0259399
0.0201416
-0.0430298
-0.0869751
-0.0646973
0
0.0939941
0.119324
0.0778198
-0.0250244
-0.0738525
-0.0671387
-0.0167847
0.0244141
-0.00427246
-0.0817871
-0.1297
-0.11322
-0.141602
-0.153503
-0.128784
0.00152588
0.129395
0.175171
0.177917
0.192566
0.104065
0.0088501
-0.00793457
0.0302124
0.0308228
0.0463867
0.0408936
0.0280762
0.0320435
0.113831
0.168762
0.243835
0.257568
0.207825
0.185852
0.185852
0.11322
0.00610352
-0.0460815
-0.093689
-0.159912
-0.246887
-0.270996
-0.218506
-0.123291
-0.0723267
0.0820923
0.306396
0.507812
0.491943
0.304565
0.100708
0.00274658
0.0289917
0.130005
0.220337
0.329285
0.361023
0.252075
0.0570679
-0.0418091
-0.0942993
-0.114746
-0.116272
-0.0912476
-0.106506
-0.171204
-0.26947
-0.418701
-0.489502
-0.433655
-0.339966
-0.303345
-0.260315
-0.144958
0.00671387
0.0360107
0.00427246
-0.03479
-0.00640869
0.114136
0.227051
0.344849
0.333252
0.135193
-0.141907
-0.305481
-0.401917
-0.473022
-0.41687
-0.266113
-0.0964355
0.0845337
0.214539
0.316162
0.455017
0.451965
0.291748
0.160217
0.0866699
0.0793457
0.12085
0.207825
0.279236
0.315247
0.330811
0.209045
0.00152588
-0.145569
-0.220947
-0.311584
-0.289307
-0.301208
-0.401306
-0.516052
-0.463562
-0.27771
-0.125732
0.0927734
0.3479
0.441895
0.343933
0.163269
-0.0201416
-0.158997
-0.273438
-0.305786
-0.181885
-0.0167847
0.0634766
0.0820923
0.0393677
0.00366211
0.0119019
-0.00335693
-0.0143433
-0.0994873
-0.130615
-0.10498
-0.163269
-0.227356
-0.256653
-0.194092
-0.0900269
0.0457764
0.15625
0.219421
0.209656
0.215454
0.191956
0.183716
0.142212
0.182495
0.220032
0.204468
0.0900269
0.0137329
0.0430298
0.120544
0.134583
0.0604248
-0.00579834
-0.0918579
-0.185852
-0.182495
-0.163574
-0.155334
-0.170898
-0.0274658
0.169678
0.33783
0.506287
0.573425
0.636902
0.750427
0.776978
0.456848
0.108337
0.072937
0.162048
0.176697
0.156555
0.0524902
-0.032959
-0.0283813
-0.0524902
-0.0762939
-0.217896
-0.422058
-0.552979
-0.646057
-0.718384
-0.727539
-0.679932
-0.499573
-0.308533
-0.117188
0.144348
0.267639
0.150452
0.022583
0.0469971
0.0708008
0.0283813
-0.0109863
-0.00793457
-0.0112915
-0.0552368
-0.167542
-0.237122
-0.250854
-0.256653
-0.193481
-0.106506
0.0445557
0.187378
0.229797
0.163879
0.111084
0.101624
0.0845337
0.0280762
0.0485229
0.0830078
0.108643
0.085144
0.098877
0.196533
0.25116
0.240784
0.25177
0.22644
0.192566
0.184937
0.156555
0.0796509
0.0363159
-0.0143433
-0.171204
-0.231628
-0.173035
-0.0698853
0.0274658
0.155945
0.246277
0.292664
0.244446
0.098877
-0.0579834
-0.119324
-0.205994
-0.314636
-0.328369
-0.253601
-0.184937
-0.0793457
0.0524902
0.0717163
0.0408936
0.012207
-0.0793457
-0.0918579
-0.0378418
-0.0192261
-0.015564
-0.0881958
-0.12085
-0.147705
-0.135498
-0.067749
0.0695801
0.171204
0.133667
0.118713
0.0704956
0.0256348
0.0442505
0.134888
0.241699
0.264282
0.280457
0.168152
0.0424194
-0.00732422
-0.0500488
-0.0891113
-0.0234985
0.0149536
0.11322
0.187683
0.180664
0.167542
0.0567627
-0.159607
-0.30426
-0.318909
-0.244141
-0.151367
-0.110474
-0.078125
-0.100098
-0.109253
-0.140381
-0.126343
-0.0158691
0.234375
0.312805
0.271912
0.214844
0.120239
0.0274658
-0.0537109
-0.143738
-0.213623
-0.330811
-0.308838
-0.0308228
0.135193
0.104065
0.0436401
0.0140381
-0.0152588
0.0256348
0.078125
0.0894165
0.108032
0.0579834
0.017395
0.00335693
-0.0228882
0.00854492
0.0210571
0.017395
-0.00488281
0.0115967
0.0427246
0.0619507
0.108337
0.13031
0.105896
0.0332642
0.0192261
0.0765991
0.0424194
-0.0561523
-0.137329
-0.167847
-0.170898
-0.140381
-0.0799561
0.022583
0.152588
0.229797
0.170898
0.0491333
0.00946045
0.0720215
0.20874
0.284119
0.279236
0.271912
0.168152
-0.0961304
-0.242615
-0.230103
-0.220947
-0.189209
-0.1651
-0.0317383
0.140076
0.0473022
-0.0552368
-0.0741577
-0.133057
-0.246277
-0.400391
-0.45929
-0.331726
-0.215149
-0.0894165
-0.0210571
0
-0.0762939
0.093689
0.303955
0.431519
0.393372
0.222473
0.21698
0.332642
0.424805
0.560913
0.655518
0.746155
0.582886
0.415649
0.297241
0.00762939
-0.220642
-0.26123
-0.28595
-0.335693
-0.428772
-0.309448
-0.110168
0.0119019
0.0512695
-0.0183105
-0.15564
-0.209961
-0.169678
-0.00732422
0.258484
0.36377
0.241394
-0.0915527
-0.361023
-0.443726
-0.308533
-0.131226
-0.121765
-0.335388
-0.544128
-0.59845
-0.541077
-0.339355
-0.0576782
0.167236
0.393066
0.592041
0.571594
0.381165
0.215149
0.150146
0.0283813
-0.0723267
-0.116272
-0.148926
-0.105591
-0.0405884
0.0378418
0.149841
0.194702
0.167847
0.101013
0.0216675
-0.0137329
0.0274658
0.128784
0.122375
0.0918579
0.133362
0.180359
0.179749
0.131531
0.0405884
-0.0296021
-0.0714111
-0.0726318
-0.0720215
-0.0613403
-0.065918
-0.0369263
0.015564
0.12085
0.241699
0.393372
0.543823
0.568237
0.343933
0.0942993
0.0219727
-0.0448608
-0.155029
-0.249939
-0.328979
-0.406799
-0.402832
-0.424194
-0.371399
-0.26001
-0.203247
-0.174866
-0.140991
-0.0927734
-0.0482178
0.0109863
0.107117
0.256042
0.358582
0.427856
0.378113
0.231018
0.118408
-0.0570679
-0.154724
-0.230408
-0.353699
-0.37323
-0.183716
0.0250244
0.151367
0.383911
0.503845
0.322266
0.152893
-0.105591
-0.328979
-0.388489
-0.371399
-0.357056
-0.238342
0.0946045
0.265808
0.258789
0.159912
-0.0271606
-0.223083
-0.279541
-0.265808
-0.26001
-0.151672
-0.0552368
0.00610352
0.0704956
0.111694
0.170288
0.117188
-0.0387573
-0.0939941
-0.128479
-0.0622559
0.0482178
0.0866699
0.072937
0.150757
0.248718
0.22644
0.295105
0.332947
0.310364
0.211792
0.00946045
-0.202332
-0.231628
-0.145874
-0.0918579
-0.131226
-0.19165
-0.213318
-0.256653
-0.288086
-0.264587
-0.219421
-0.151672
-0.0888062
-0.0534058
-0.0460815
-0.0357056
-0.0543213
-0.0650024
-0.0494385
0.0512695
0.158081
0.166626
0.131226
0.0985718
0.0680542
0.0497437
0.0769043
0.101013
0.151978
0.126648
0.0845337
0.0442505
-0.00305176
0.022583
0.0405884
0.0595093
0.0231934
-0.0238037
-0.085144
-0.157166
-0.178833
0.0338745
0.335083
0.538025
0.711975
0.631104
0.259399
-0.0234985
-0.175171
-0.273743
-0.20813
-0.226135
-0.304871
-0.271606
-0.130005
-0.0354004
-0.0393677
-0.0491333
-0.0442505
-0.0527954
-0.104675
-0.230103
-0.317078
-0.346375
-0.316162
-0.127258
0.00823975
0.0769043
0.0588989
0.0210571
-0.00854492
0.0650024
0.157471
0.17395
0.183716
0.143127
-0.020752
-0.212708
-0.195007
-0.142517
-0.124817
-0.100098
-0.111084
-0.0894165
-0.0198364
-0.0289917
-0.0643921
-0.0128174
-0.00793457
-0.0198364
0.0271606
0.195618
0.266113
0.1828
0.0488281
-0.0326538
-0.0839233
-0.0744629
-0.0308228
0.0411987
0.0961304
0.0949097
0.0146484
-0.0656128
-0.128479
-0.0646973
0.108032
0.317993
0.4776
0.556335
0.577698
0.485535
0.369568
0.179443
-0.102844
-0.382996
-0.527344
-0.624084
-0.57251
-0.492554
-0.359802
-0.201111
-0.0585938
-0.0912476
-0.170593
-0.144348
-0.0924683
0.012207
0.229797
0.432434
0.57251
0.528564
0.378113
0.0949097
-0.085144
-0.0158691
0.16449
0.168457
0.0540161
-0.0241089
-0.134583
-0.172119
-0.174866
-0.171509
-0.0912476
-0.00518799
-0.101318
-0.215149
-0.186768
-0.125427
-0.102234
-0.160828
-0.177002
-0.181885
-0.19043
-0.196533
-0.138245
-0.0790405
-0.0344849
0.0119019
0.0170898
0.06073
0.0619507
0.0213623
-0.0439453
-0.0549316
-0.0119019
0.09552
0.196838
0.224304
0.133362
0.00701904
-0.0875854
-0.202637
-0.378723
-0.469055
-0.418701
-0.281372
-0.264893
-0.226135
-0.0595093
0.0888062
0.2005
0.151062
0.204468
0.265808
0.23407
0.16571
0.183411
0.305481
0.353088
0.293884
0.182495
0.0756836
-0.00396729
0.0384521
0.10376
0.180969
0.261536
0.288696
0.306091
0.297241
0.113831
0.0509644
0.146179
0.205994
0.13855
0.0323486
-0.238342
-0.476685
-0.471497
-0.32074
-0.199585
-0.140076
-0.0802612
-0.0622559
-0.108948
-0.0811768
0.0100708
0.113525
0.213318
0.26001
0.107727
-0.109558
-0.201721
-0.223389
-0.271301
-0.302429
-0.296936
-0.2005
-0.0918579
-0.0415039
0.0241089
0.108643
0.131531
0.0888062
0.0588989
0.055542
0.0326538
0.0149536
0.00335693
0.0613403
0.0854492
0.0204468
-0.020752
-0.0238037
0.0460815
0.209351
0.37323
0.455017
0.477905
0.352173
0.0164795
-0.20813
-0.227661
-0.229187
-0.25116
-0.246887
-0.237122
-0.202026
-0.0857544
0.0613403
0.106506
0.107727
0.175476
0.175171
0.0628662
-0.0817871
-0.176392
-0.207214
-0.190735
-0.155029
-0.131836
-0.106506
-0.043335
-0.0564575
-0.045166
0.0946045
0.279236
0.519104
0.677795
0.640564
0.381165
0.0177002
-0.197449
-0.397949
-0.548706
-0.570374
-0.40741
-0.180359
0.0994873
0.314026
0.413513
0.525208
0.537415
0.433044
0.375671
0.344543
0.194702
0.00671387
-0.109253
-0.150452
-0.206909
-0.254211
-0.224915
-0.183105
-0.158691
-0.137329
-0.144958
-0.204163
-0.245667
-0.396729
-0.549011
-0.492554
-0.343323
-0.194702
-0.0595093
0.150452
0.286865
0.233154
0.162964
0.0845337
0.0317383
0.027771
0.0314331
0.0189209
0.0164795
-0.00579834
0.0012207
0.0836182
0.184326
0.202332
0.163269
0.0491333
-0.0137329
0.0180054
0.0848389
0.0976562
-0.0650024
-0.231018
-0.221863
-0.0778198
0.132751
0.3479
0.35675
0.295105
0.172729
0.043335
-0.0402832
-0.0787354
-0.0762939
-0.0802612
-0.0942993
-0.0518799
0.0100708
0.0442505
0.0265503
0.0354004
0.120544
0.175476
0.181274
0.161438
0.0595093
-0.0631714
-0.166931
-0.19989
-0.161438
-0.0991821
0.020752
0.225525
0.324097
0.228577
0.142212
0.164185
0.121155
-0.00396729
0.0247192
0.00427246
-0.022583
-0.0744629
-0.128479
-0.132446
-0.107117
-0.0787354
-0.132751
-0.184937
-0.169067
-0.11322
-0.0961304
-0.132141
-0.148621
-0.14801
-0.141907
-0.10498
-0.0296021
0.153503
0.32196
0.424805
0.395813
0.298462
0.113831
0.0198364
0.0842285
0.0921631
0.0448608
0.038147
0.0598145
-0.0234985
-0.0619507
-0.071106
-0.0772095
-0.057373
-0.0515747
-0.0372314
-0.0311279
-0.0613403
-0.207825
-0.348816
-0.348511
-0.231628
-0.126038
-0.0796509
0.0286865
0.0125122
-0.0827026
-0.162659
-0.115051
-0.0640869
-0.0201416
0.0408936
0.0839233
0.0588989
0.184631
0.376282
0.409546
0.367432
0.287476
0.157776
0.00488281
-0.112305
-0.0939941
-0.0296021
0.0354004
0.11322
0.137634
0.1828
0.227661
0.229797
0.263367
0.285034
0.197144
0.101624
0.0228882
-0.10498
-0.0686646
0.148621
0.218201
0.107117
-0.0823975
-0.275574
-0.316162
-0.291138
-0.284424
-0.264893
-0.215149
-0.0656128
0.106506
0.215454
0.328064
0.358887
0.16571
-0.109558
-0.222473
-0.213013
-0.157776
-0.153198
-0.144958
-0.0949097
-0.112
-0.189514
-0.211792
-0.115662
-0.0204468
-0.0311279
-0.0830078
-0.1651
-0.237122
-0.197754
-0.0897217
0.0149536
0.132446
0.188293
0.167847
0.0540161
-0.104065
-0.172729
-0.159302
-0.143127
-0.107727
-0.0454712
0.0167847
0.065918
0.0933838
0.108948
0.114136
0.133667
0.181885
0.202942
0.215149
0.214539
0.209961
0.199585
0.188293
0.164795
0.0753784
0.00701904
-0.0500488
-0.0747681
-0.0201416
0.0906372
0.187683
0.214539
0.257568
0.238953
0.16571
0.249329
0.282593
0.100098
-0.0680542
-0.0967407
-0.113525
-0.204468
-0.297546
-0.329895
-0.361633
-0.335999
-0.214233
-0.180359
-0.21759
-0.19989
-0.150146
-0.135803
-0.143127
-0.160217
-0.166321
-0.0680542
0.050354
0.111084
0.0888062
0.0125122
-0.0317383
-0.0256348
-0.0534058
0.0479126
0.3302
0.498962
0.52002
0.558167
0.503235
0.274963
0.108948
0.0164795
-0.134888
-0.21759
-0.117493
-0.0408936
-0.0338745
-0.138855
-0.283508
-0.287476
-0.127563
0.0253296
0.0686646
0.0262451
-0.107727
-0.205994
-0.246887
-0.166931
-0.0857544
-0.120239
-0.16571
-0.0817871
0.062561
0.14801
0.110168
0.0512695
-0.00701904
-0.0372314
-0.0500488
0.0598145
0.0753784
0.00671387
-0.0125122
0.0210571
0.0653076
0.116577
0.137024
0.17334
0.1828
0.118713
0
-0.122681
-0.144958
-0.130005
-0.123291
-0.14679
-0.171509
-0.157166
-0.137024
-0.144043
-0.12085
-0.0509644
0.055542
0.108643
0.0552368
-0.0112915
-0.0396729
-0.0509644
0.00335693
0.0567627
0.0418091
0.0521851
0.185242
0.365906
0.405884
0.292358
0.0619507
-0.0405884
-0.0708008
-0.0253296
0.143433
0.253296
0.286865
0.219421
-0.0369263
-0.21698
-0.124512
-0.0732422
-0.0088501
0.142822
0.223083
0.220642
0.0991821
-0.0842285
-0.318909
-0.356445
-0.263977
-0.137329
-0.0549316
-0.0363159
-0.0439453
-0.0439453
-0.00793457
-0.0411987
-0.098877
-0.0613403
0.0720215
0.198975
0.292053
0.354309
0.256348
-0.0640869
-0.233765
-0.282898
-0.261536
-0.240479
-0.235596
-0.126038
-0.0292969
-0.0112915
0.0244141
0.0521851
0.027771
-0.0341797
-0.093689
-0.101318
-0.0588989
-0.0128174
0.0241089
0.0588989
0.0704956
0.0793457
0.111084
0.122986
0.085144
0.0735474
0.0769043
0.0952148
0.114441
0.0869751
0.0869751
0.0634766
-0.0192261
-0.0909424
-0.166321
-0.184631
-0.0967407
0.0280762
0.157471
0.256042
0.349731
0.436096
0.570679
0.718689
0.722351
0.538635
0.231934
-0.0778198
-0.316162
-0.421448
-0.471497
-0.513
-0.519409
-0.505981
-0.401001
-0.379028
-0.372925
-0.357666
-0.270081
-0.16571
-0.0579834
0.0543213
0.1474
0.185242
0.172119
0.148621
0.0262451
-0.062561
-0.093689
-0.0701904
-0.0631714
-0.0772095
-0.072937
-0.144043
-0.236816
-0.288086
-0.222778
-0.110168
-0.0289917
-0.0186157
0.0680542
0.204773
0.270691
0.288391
0.236511
0.172119
0.111389
0.0112915
-0.0494385
-0.0790405
-0.0640869
0.0418091
0.126343
0.204468
0.305176
0.324097
0.263672
0.194092
0.0997925
0.0698853
0.0775146
0.055542
0.0411987
-0.0466919
-0.199585
-0.309753
-0.322571
-0.134888
0.0485229
0.0595093
0.0378418
-0.0448608
-0.177917
-0.26001
-0.236816
-0.153809
-0.0299072
0.164795
0.331116
0.393677
0.344543
0.103455
0.00915527
0.0354004
0.132141
0.259705
0.298462
0.236816
0.0662231
-0.106506
-0.0802612
0.103149
0.187378
0.0900269
-0.0628662
-0.290833
-0.500793
-0.556946
-0.43396
-0.233765
0.0820923
0.33905
0.409851
0.377197
0.263062
0.088501
-0.0817871
-0.231018
-0.246582
-0.202026
-0.162659
-0.19928
-0.246277
-0.233459
-0.215149
-0.111084
0.12207
0.298767
0.391541
0.385132
0.222473
-0.0881958
-0.286865
-0.380859
-0.438843
-0.323792
-0.0198364
0.193176
0.318909
0.305481
0.274963
0.168762
0.0497437
-0.0576782
-0.147705
-0.234985
-0.279846
-0.242004
-0.119324
-0.0259399
0.057373
0.163879
0.201416
0.157471
0.0888062
-0.012207
-0.0738525
-0.0906372
-0.119324
-0.119629
-0.110474
-0.0942993
-0.0491333
-0.0479126
-0.0512695
-0.0411987
0
0.0604248
0.067749
0.109253
0.180359
0.281067
0.311279
0.28717
0.220642
0.231628
0.324402
0.369263
0.387878
0.322876
0.246582
0.0836182
-0.145264
-0.269775
-0.249939
-0.204773
-0.170288
-0.0906372
0.027771
0.0164795
-0.055542
0.0167847
0.0564575
0.0204468
-0.0473022
-0.0698853
-0.0985718
-0.128174
-0.1828
-0.209045
-0.218811
-0.305481
-0.288086
-0.0244141
0.299683
0.491333
0.439758
0.212402
-0.0561523
-0.239563
-0.323486
-0.226135
-0.0979614
-0.0537109
-0.0744629
-0.144043
-0.209656
-0.232849
-0.195312
-0.137024
-0.0576782
0.0494385
0.195923
0.22583
0.184021
0.155945
0.147705
0.100708
0
0.0814819
0.109253
0.0610352
-0.012207
-0.0326538
-0.0427246
-0.0289917
0.0241089
0.100708
0.244751
0.365295
0.438538
0.532532
0.557556
0.363464
0.0402832
-0.193176
-0.367432
-0.477295
-0.496826
-0.456848
-0.412903
-0.276489
-0.0808716
-0.00427246
-0.0964355
-0.088501
-0.0778198
-0.0915527
-0.00457764
0.229797
0.38147
0.439148
0.3479
0.22644
0.114441
0.0363159
-0.107727
-0.247498
-0.344849
-0.333252
-0.290222
-0.266724
-0.220947
-0.146484
-0.072937
-0.0817871
-0.0112915
0.0964355
0.153809
0.18158
0.221252
0.124207
0.0286865
0.0164795
0.0708008
0.217285
0.383911
0.461731
0.43396
0.480652
0.549011
0.565491
0.375671
0.176392
0.0222778
-0.107727
-0.251465
-0.328369
-0.298157
-0.209351
-0.204773
-0.257263
-0.235291
-0.175781
-0.0128174
0.100708
0.137634
0.0958252
-0.0918579
-0.20874
-0.281677
-0.286865
-0.248718
-0.20813
-0.217896
-0.222778
-0.0161743
0.10376
0.0308228
-0.0088501
0.0460815
0.163269
0.280457
0.272217
0.144958
0.0189209
0.022583
0.0857544
0.116272
-0.0479126
-0.213013
-0.234375
-0.2005
-0.174255
-0.115662
-0.0646973
-0.0463867
0.039978
0.0534058
-0.0140381
-0.0881958
-0.127563
-0.124817
-0.0369263
0.0790405
0.155029
0.140381
0.0869751
0.0802612
0.127258
0.150146
0.0540161
-0.0601196
-0.112
-0.157776
-0.163269
-0.118713
0.0259399
0.171509
0.132751
0.141602
0.140381
0.108032
0.0674438
0.0247192
0.0485229
0.19989
0.450134
0.631409
0.577393
0.348816
0.0622559
-0.0411987
-0.100403
-0.162964
-0.183411
-0.0689697
0.245972
0.669861
0.880737
0.958252
0.777893
0.270691
-0.254517
-0.52002
-0.53894
-0.53009
-0.534668
-0.526123
-0.485229
-0.435486
-0.379333
-0.314636
-0.254211
-0.199585
-0.205383
-0.238342
-0.342102
-0.458069
-0.404663
-0.165405
0.102844
0.233459
0.272217
0.287476
0.235901
0.149231
0.0466919
-0.00854492
0.00671387
0.0415039
0.0848389
0.140381
0.18158
0.144043
0.0125122
-0.0622559
-0.0183105
0.0637817
0.0915527
0.088501
0.0497437
-0.00762939
-0.06073
-0.0808716
-0.088501
-0.0759888
-0.0527954
-0.0222778
0.00732422
0.000610352
-0.0323486
-0.0500488
-0.06073
-0.0518799
-0.050354
-0.0424194
-0.0219727
-0.00549316
0.0134277
0.0253296
-0.012207
-0.03479
-0.0286865
0.0161743
0.0808716
0.184021
0.243835
0.32135
0.394287
0.373535
0.350037
0.39856
0.316162
0.103455
-0.14679
-0.364075
-0.39032
-0.354309
-0.299683
-0.110168
0.143738
0.370789
0.482483
0.407715
0.235291
-0.0186157
-0.245056
-0.367737
-0.36438
-0.343323
-0.324097
-0.275879
-0.246277
-0.208435
-0.104065
-0.0164795
0.0314331
0.0509644
0.0747681
0.103455
0.116272
0.143127
0.107117
0.110474
0.0680542
-0.0445557
-0.158081
-0.19165
-0.14801
-0.0210571
0.131226
0.196228
0.157166
0.0778198
0.0250244
-0.0268555
-0.136108
-0.226746
-0.267334
-0.236816
-0.170288
-0.119019
-0.0881958
-0.0534058
0.0088501
-0.0405884
-0.0802612
-0.106201
-0.0540161
0.078125
0.198059
0.235596
0.223083
0.183411
0.114441
-0.0436401
-0.0872803
-0.0436401
0.0482178
0.0906372
0.123901
0.13855
0.0680542
-0.00915527
-0.0268555
0.0442505
0.0668335
0.055542
0.152893
0.180054
0.119019
0.00946045
-0.0888062
-0.195312
-0.291748
-0.301819
-0.0619507
0.193481
0.229492
0.340881
0.468445
0.463867
0.384827
0.28595
0.271301
0.325012
0.274963
0.21759
0.188293
0.201721
0.124207
-0.105896
-0.325012
-0.421143
-0.408936
-0.394592
-0.406799
-0.401001
-0.358582
-0.308838
-0.294189
-0.323181
-0.390625
-0.403137
-0.388489
-0.387573
-0.332642
-0.248108
-0.144043
-0.0588989
0.0598145
0.13092
0.289612
0.411377
0.443115
0.345764
0.228271
0.101013
0.0387573
0.0344849
0.0540161
0.126343
0.202332
0.287781
0.43457
0.55481
0.583496
0.405579
0.238037
0.0765991
0.000610352
-0.0796509
-0.187988
-0.218811
-0.189209
-0.166321
-0.166321
-0.220947
-0.257263
-0.189514
-0.0866699
-0.0421143
-0.0442505
-0.0799561
-0.0692749
-0.0708008
-0.0527954
-0.0869751
-0.0488281
-0.0161743
-0.00793457
0.022583
0.090332
0.18219
0.162048
0.0662231
-0.012207
-0.0579834
-0.101318
-0.102539
-0.0802612
-0.0140381
-0.00732422
-0.0283813
0.0546265
0.239563
0.266113
0.102234
-0.00335693
-0.0253296
-0.0231934
-0.0253296
-0.185852
-0.26886
-0.25238
-0.148621
-0.0485229
0.050354
0.155029
0.127258
0.0387573
-0.0463867
-0.0436401
0.0814819
0.224304
0.266724
0.239563
0.220642
0.16571
0.125732
0.150757
0.17334
0.158997
0.0857544
0.0216675
0.0241089
0.0723267
-0.0241089
-0.11322
-0.157166
-0.177307
-0.24292
-0.318298
-0.388489
-0.3302
-0.273132
-0.334778
-0.306396
-0.138855
0
0.157471
0.272827
0.295105
0.247803
0.177612
0.0918579
-0.0100708
-0.0869751
-0.114441
-0.0839233
-0.0393677
0.0204468
0.0668335
0.071106
0.0442505
0.0189209
-0.027771
-0.0723267
-0.0973511
-0.101624
-0.122681
-0.116882
-0.0408936
0.0540161
0.0796509
0.0866699
0.119934
0.1297
0.185242
0.279846
0.332336
0.299988
0.301208
0.304565
0.213623
0.0952148
-0.0531006
-0.14801
-0.133057
-0.0689697
-0.0131226
0.0485229
0.0238037
-0.03479
-0.118103
-0.159607
-0.127869
-0.0646973
-0.0292969
-0.00457764
0.0241089
0.0656128
0.0680542
0.0311279
0.027771
0.213013
0.381165
0.427856
0.258789
0.050354
-0.280151
-0.490723
-0.471802
-0.32074
-0.257568
-0.232544
-0.225525
-0.220947
-0.190735
-0.205078
-0.244446
-0.249939
-0.144653
0.015564
0.127258
0.155029
0.127563
0.151978
0.116272
0.143433
0.228271
0.159607
0.050354
-0.0845337
-0.185852
-0.232849
-0.214233
-0.205688
-0.149841
-0.0601196
-0.00213623
-0.0012207
0.0164795
-0.0177002
-0.0708008
-0.0387573
0.00946045
0.0375366
0.0326538
0.0619507
0.139465
0.17334
0.217285
0.198975
0.0332642
-0.0323486
0.00427246
0.00549316
-0.0119019
-0.0427246
0.00762939
0.0674438
0.0744629
0.105591
0.178528
0.307312
0.446472
0.521851
0.42511
0.178528
0.0137329
-0.136719
-0.204773
-0.182495
-0.206604
-0.261841
-0.340881
-0.331116
-0.2948
-0.273743
-0.153503
-0.0158691
0.0918579
0.214539
0.291443
0.192566
0.0668335
0.0439453
0.102234
0.155029
0.132751
0.149841
0.160828
0.032959
-0.183105
-0.289001
-0.308838
-0.321045
-0.2771
-0.142212
-0.0161743
0.157166
0.188293
0.12085
0.000915527
-0.115967
-0.124207
-0.178833
-0.220947
-0.125427
-0.00854492
0.0720215
0.0808716
0.0723267
0.101013
0.0827026
0.0866699
0.192261
0.341187
0.444641
0.568848
0.59082
0.396423
0.137634
0.0680542
-0.0415039
-0.1828
-0.36377
-0.488586
-0.550232
-0.553284
-0.437012
-0.387573
-0.358887
-0.362244
-0.243835
-0.0732422
0.0695801
0.136108
0.203552
0.2771
0.258484
0.195007
0.183105
0.185242
0.159912
0.0653076
-0.0387573
-0.155334
-0.204163
-0.173645
0.0244141
0.305786
0.527039
0.510559
0.317993
-0.0106812
-0.30365
-0.314941
-0.191956
-0.0857544
0.0479126
0.0454712
-0.0466919
-0.145874
-0.218506
-0.151367
-0.027771
0.00396729
-0.0616455
-0.142517
-0.164795
-0.137024
-0.0881958
-0.0753784
-0.0222778
0.18158
0.396729
0.458069
0.470886
0.458374
0.264282
0.0744629
0.0137329
0.0924683
0.0848389
0.0769043
0.012207
-0.163879
-0.258789
-0.247192
-0.217896
-0.215454
-0.198669
-0.143127
-0.114746
-0.124512
-0.140686
-0.145569
-0.107727
-0.0476074
0.0360107
0.0714111
0.0918579
0.100403
0.055542
0.020752
0.0149536
-0.00488281
-0.0131226
-0.0158691
0.0161743
0.0228882
0.0323486
0.0921631
0.149231
0.185852
0.252686
0.247803
0.176697
0.0827026
0.0292969
0.0180054
0.106812
0.176392
0.177307
0.191956
0.119324
-0.0357056
-0.139771
-0.219727
-0.228577
-0.143738
-0.0695801
-0.0839233
-0.0799561
-0.0723267
-0.0540161
-0.0704956
-0.0814819
-0.0808716
-0.0265503
0.0778198
0.13031
0.171204
0.191956
0.13916
0.0762939
-0.0119019
-0.0259399
-0.00762939
0.0765991
0.153503
0.212708
0.251465
0.105591
-0.121765
-0.315857
-0.412903
-0.284424
-0.0509644
0.127563
0.315247
0.379944
0.370483
0.312805
0.214539
0.0372314
-0.115356
-0.196228
-0.229492
-0.301208
-0.319824
-0.301208
-0.2771
-0.244141
-0.111084
0.149536
0.280457
0.263367
0.120544
-0.177002
-0.349731
-0.352783
-0.301514
-0.16449
-0.0280762
0.102539
0.236511
0.299377
0.255432
0.255127
0.248718
0.175476
0.106812
0.055542
0.0476074
0.162964
0.26947
0.253296
0.0506592
-0.19928
-0.278625
-0.249023
-0.174866
-0.112305
-0.0561523
-0.109863
-0.22522
-0.283508
-0.296936
-0.268555
-0.20752
-0.0302124
0.0680542
0.158691
0.173645
0.147705
0.0579834
0.00427246
-0.0613403
-0.0714111
0.0506592
0.18219
0.246277
0.308838
0.324402
0.326233
0.317078
0.259094
0.172729
0.0924683
0.0857544
0.125732
0.137634
0.129395
0.154419
0.162354
0.219727
0.316772
0.369873
0.2948
0.149841
0.0192261
-0.0674438
-0.128479
-0.181885
-0.184326
-0.171814
-0.189514
-0.244446
-0.281982
-0.296021
-0.233154
-0.169983
-0.109558
-0.0234985
-0.0601196
-0.179443
-0.203857
-0.162659
-0.106201
-0.0424194
0.0631714
0.09552
0.0598145
0.0500488
0.0457764
0.0375366
0.0656128
0.140076
0.299988
0.487061
0.574036
0.596924
0.48645
0.186157
-0.0857544
-0.198364
-0.278015
-0.33905
-0.333252
-0.347595
-0.450134
-0.414734
-0.277405
-0.1651
-0.0671387
0.0576782
0.135193
0.143127
0.151672
0.151367
0.186462
0.218811
0.203247
0.0946045
-0.0198364
-0.065918
-0.0485229
-0.0765991
-0.0994873
-0.111084
-0.108032
-0.0537109
0.0765991
0.184326
0.207214
0.179443
0.172119
0.153809
0.0909424
0.00823975
-0.0228882
-0.072937
-0.0695801
-0.0259399
0.0119019
0.00366211
-0.00762939
0.0100708
-0.00701904
0.00610352
-0.032959
-0.0671387
-0.0378418
-0.0753784
-0.124817
-0.202942
-0.282898
-0.284424
-0.227051
-0.116272
0.0286865
0.107422
0.0970459
0.0650024
0.0534058
0.0830078
0.107727
0.0805664
0.0439453
-0.00793457
-0.0143433
0.0222778
0.00946045
-0.0204468
0.0128174
0.0689697
0.101929
0.0787354
0.0341797
0.000915527
0.0143433
0.0469971
0.115051
0.232544
0.323181
0.384521
0.308533
0.203857
0.134583
0.010376
-0.205688
-0.395813
-0.475769
-0.379028
-0.205383
-0.0247192
0.0408936
0.0723267
0.107727
0.13855
0.102844
0.166626
0.26001
0.221863
0.0692749
-0.0894165
-0.171814
-0.230713
-0.177002
-0.119019
-0.0842285
-0.0698853
-0.112305
-0.106201
0.0106812
0.125427
0.19165
0.162659
0.0640869
-0.0488281
-0.186157
-0.223694
-0.220642
-0.19928
-0.158081
-0.100708
0.0119019
0.139771
0.137024
0.133972
0.13031
0.127869
0.102844
0.083313
0.0668335
0.0820923
0.0643921
0.0289917
0.00640869
-0.0375366
-0.0720215
-0.115356
-0.178528
-0.218811
-0.204773
-0.176086
-0.147705
-0.0854492
-0.0784302
-0.0595093
0.015564
0.0637817
0.0598145
-0.0186157
-0.0695801
-0.100403
-0.176086
-0.134583
-0.0149536
0.0674438
-0.00457764
-0.0900269
-0.198364
-0.25177
-0.18219
-0.0848389
0.0476074
0.184937
0.277405
0.348511
0.363464
0.27771
0.177307
0.0924683
-0.0143433
-0.0823975
-0.0872803
-0.0665283
-0.0628662
-0.0488281
0.0119019
0.0543213
0.11261
0.205688
0.333252
0.488281
0.534668
0.498352
0.444946
0.374756
0.258789
0.162354
0.022583
-0.107727
-0.179443
-0.248718
-0.25177
-0.257874
-0.258789
-0.276489
-0.343018
-0.357666
-0.335083
-0.350952
-0.311584
-0.226746
-0.175171
-0.150146
-0.137939
-0.0894165
0
0.0735474
0.118103
0.130005
0.103455
0.0570679
0.0793457
0.055542
0.0109863
-0.0698853
-0.119934
-0.137939
-0.12207
-0.043335
0.0619507
0.072937
0.0350952
0.0259399
0.0393677
0.0192261
-0.0820923
-0.127258
-0.146179
-0.162659
-0.158386
-0.137634
-0.0149536
0.083313
0.0799561
0.00640869
-0.0839233
-0.1297
-0.132141
-0.112
-0.0802612
-0.0128174
0.0686646
0.175476
0.238037
0.177307
0.0939941
0.0238037
-0.055542
-0.012207
0.027771
0.000610352
-0.0128174
-0.0256348
-0.0341797
0.0540161
0.274963
0.61554
0.760498
0.591736
0.363159
0.227966
0.112305
0.017395
-0.111694
-0.212402
-0.196838
-0.143738
-0.125122
-0.00671387
0.0735474
-0.0585938
-0.222473
-0.160522
-0.0427246
0.106201
0.305176
0.45166
0.435486
0.230713
-0.107727
-0.429688
-0.534363
-0.447693
-0.404358
-0.287476
-0.118103
-0.090332
-0.135193
-0.12207
-0.141907
-0.140076
-0.142822
-0.166321
-0.110168
-0.0735474
-0.0192261
0.038147
0.0436401
0.027771
0.00244141
-0.0219727
-0.0592041
-0.123291
-0.121155
-0.104065
-0.121765
-0.132141
-0.0949097
-0.0354004
0.0622559
0.175171
0.179138
0.133667
0.166931
0.184021
0.155029
0.110168
0.12207
0.179443
0.180664
0.0830078
0.000305176
-0.010376
0.0894165
0.155945
0.219421
0.298767
0.243225
0.0985718
0.0286865
0.0283813
0.00427246
-0.0283813
-0.0469971
-0.0656128
-0.124817
-0.16571
-0.178833
-0.139465
-0.0973511
-0.0628662
-0.0363159
0.0265503
0.105896
0.127258
0.140076
0.0817871
0.0906372
0.0698853
0.00671387
-0.0497437
-0.0860596
-0.0704956
-0.0546265
-0.0289917
0.0408936
0.0674438
0.00518799
-0.0445557
0.0302124
0.173035
0.259399
0.188293
0.100098
-0.0695801
-0.214233
-0.265503
-0.286255
-0.290833
-0.19165
-0.111084
-0.112305
-0.108948
-0.0872803
-0.101929
-0.0973511
-0.0482178
0.038147
0.184937
0.307007
0.374756
0.351257
0.276794
0.130005
0.000610352
0.0247192
0.0769043
-0.00701904
-0.179443
-0.308228
-0.316467
-0.234985
-0.0817871
0.10437
0.269775
0.275879
0.22522
0.161438
0.100403
0.115967
0.158081
0.181885
0.175476
0.117493
-0.00274658
-0.0671387
-0.168762
-0.278015
-0.291138
-0.184021
-0.101013
-0.0717163
-0.107727
-0.133362
-0.13855
-0.115051
-0.0698853
-0.0576782
-0.133972
-0.209045
-0.21637
-0.161438
-0.0924683
-0.0128174
0.100403
0.171509
0.171814
0.132141
0.0891113
0.0717163
0.0457764
0.0161743
-0.0253296
-0.118408
-0.197449
-0.256653
-0.233459
-0.0564575
0.0753784
0.0942993
0.0604248
0.0588989
0.0405884
0.0152588
-0.0546265
-0.098877
-0.0857544
-0.0723267
-0.0540161
-0.00640869
0.112
0.163269
0.128479
0.117493
0.135498
0.15686
0.135498
0.093689
0.0595093
0.06073
0.11261
0.148621
0.194702
0.171509
0.127869
0.117798
0.106201
0.0985718
0.0164795
0.0131226
0.0473022
0.0750732
0.0146484
-0.0915527
-0.142822
-0.101318
-0.0741577
-0.140686
-0.144958
-0.0610352
0.0369263
0.107117
0.176697
0.227661
0.290222
0.316772
0.24231
0.0698853
-0.0531006
-0.00732422
-0.00610352
-0.118103
-0.215454
-0.248108
-0.248108
-0.254822
-0.284119
-0.30304
-0.329895
-0.349426
-0.247803
-0.0930786
-0.0210571
-0.0442505
-0.107727
-0.072937
0.0131226
0.0485229
0.135498
0.253296
0.28656
0.304565
0.324707
0.350647
0.245361
0.0668335
-0.0448608
-0.145569
-0.193176
-0.137634
-0.0363159
0.0463867
0.0909424
0.0744629
0.0485229
0.0695801
0.0442505
0.0415039
0.0640869
0.0613403
0.0189209
0.0582886
0.122986
0.0534058
-0.102234
-0.115051
-0.107422
-0.100098
0.00610352
0.245056
0.428467
0.487976
0.375671
0.197449
0.098877
0.0445557
-0.0283813
-0.104675
-0.260315
-0.311584
-0.328064
-0.439758
-0.449829
-0.336609
-0.176697
-0.0250244
0.0369263
0.0512695
0.0326538
0.0125122
0.0274658
0.00518799
-0.0531006
-0.109253
-0.128479
-0.113525
-0.0653076
0.0186157
0.0857544
0.168152
0.22644
0.202637
0.137634
0.109253
0.0595093
0.00701904
-0.00244141
0.0106812
0.0366211
0.0341797
0.133057
0.298157
0.412292
0.493469
0.44281
0.274658
0.0579834
-0.113831
-0.272522
-0.377502
-0.301514
-0.193481
-0.137634
-0.0982666
-0.0546265
0.0143433
0.0375366
0.0231934
-0.0537109
-0.134277
-0.156555
-0.170593
-0.122986
-0.0460815
-0.0167847
-0.0289917
-0.0137329
0.0421143
0.121155
0.254822
0.353394
0.3302
0.233765
0.0979614
-0.140076
-0.297546
-0.298157
-0.239258
-0.0698853
0.0192261
-0.012207
-0.0259399
-0.0418091
-0.0582886
-0.120239
-0.0845337
-0.0421143
0.010376
0.0430298
0.045166
0.032959
0.000305176
-0.0509644
-0.0906372
-0.102539
-0.0549316
-0.0695801
-0.112915
-0.10376
-0.0354004
0.0402832
0.146179
0.155029
0.106506
0.0613403
0.0201416
0.0167847
0.0430298
0.0878906
0.195923
0.344543
0.496216
0.545654
0.551453
0.464172
0.239258
0.0448608
-0.127563
-0.228577
-0.240479
-0.240173
-0.208435
-0.176392
-0.161133
-0.112
-0.0637817
-0.00457764
0.10498
0.207214
0.294495
0.281677
0.144958
-0.0732422
-0.179749
-0.226746
-0.207825
-0.187988
-0.206909
-0.197144
-0.158691
-0.13855
-0.010376
0.0442505
0.0125122
0.00610352
-0.00854492
0.0344849
0.0311279
-0.0109863
-0.022583
-0.0888062
-0.172424
-0.177307
-0.176697
-0.189209
-0.200195
-0.158081
-0.14801
-0.193481
-0.191345
-0.0982666
-0.0158691
0.0671387
0.146484
0.0469971
-0.0726318
-0.0302124
-0.0222778
-0.0170898
-0.00610352
0.0088501
0.0192261
0.032959
0.0717163
0.0918579
0.0906372
0.0485229
-0.027771
-0.050354
0.0109863
0.0686646
0.0146484
-0.0234985
-0.0784302
-0.1297
-0.110168
-0.0790405
-0.0372314
-0.0256348
0.0259399
0.137634
0.187378
0.212708
0.19043
0.192871
0.255737
0.295105
0.318298
0.325012
0.258484
0.238953
0.219421
0.272217
0.237427
0.177917
0.194397
0.167847
0.0875854
-0.0198364
-0.123901
-0.213928
-0.175171
-0.103455
-0.0952148
-0.101624
-0.125122
-0.160828
-0.19165
-0.25238
-0.288696
-0.313721
-0.285645
-0.194092
-0.0839233
0.0970459
0.19928
0.153198
0.078125
0.0799561
0.108337
0.0756836
0.108643
0.153198
0.169678
0.15564
0.118408
0.0357056
-0.0918579
-0.123596
-0.151062
-0.267029
-0.276794
-0.127258
0.0088501
0.180359
0.237732
0.22522
0.260925
0.240173
0.107727
-0.0152588
-0.0997925
-0.239563
-0.343323
-0.382996
-0.423279
-0.399475
-0.257874
-0.0939941
0.0650024
0.189209
0.183105
0.184021
0.26947
0.285034
0.131836
-0.0790405
-0.30426
-0.387268
-0.343933
-0.237732
-0.0775146
0.135193
0.192871
0.141907
0.108337
0.0778198
0.0454712
0.0595093
0.0802612
0.0726318
0.0482178
-0.0164795
-0.00915527
-0.00488281
0.00183105
0.0613403
0.0744629
0.0613403
-0.017395
-0.134888
-0.125122
-0.0289917
0.0390625
0.0332642
0.0378418
0.0466919
0.0698853
0.131836
0.117188
0.0823975
0.00915527
0.0134277
0.132751
0.15564
0.137024
0.162659
0.0964355
0.0167847
0.027771
0.0576782
0.0100708
-0.0845337
-0.0695801
-0.00579834
-0.022583
-0.0598145
-0.112
-0.138855
-0.0994873
-0.0354004
0.0308228
0.0216675
0.0167847
-0.0219727
-0.0671387
-0.0796509
0.0146484
0.157776
0.272827
0.221252
0.0656128
0.00610352
-0.00915527
0.0131226
0.0872803
0.0396729
-0.0405884
-0.0634766
-0.0927734
-0.0756836
-0.0894165
-0.109253
-0.102539
-0.129089
-0.146179
-0.13092
-0.140686
-0.0958252
0.0292969
0.247192
0.371399
0.343323
0.278015
0.0140381
-0.22583
-0.331421
-0.375061
-0.279846
-0.0814819
0.0439453
0.0845337
0.0338745
-0.0289917
-0.0601196
-0.0228882
0.0442505
0.13092
0.221863
0.291748
0.235291
0.105286
0.0646973
0.0979614
0.121155
0.0845337
0.0930786
0.0701904
0.0134277
-0.116577
-0.305481
-0.368042
-0.27832
-0.173035
-0.151062
-0.149841
-0.142517
-0.132446
-0.135498
-0.118408
-0.0473022
0.0115967
-0.00305176
-0.0186157
0.0119019
0.0765991
0.133057
0.235291
0.29541
0.206604
0.0814819
0.00579834
-0.0448608
-0.12146
-0.154114
-0.0857544
0.0180054
0.0863647
0.101318
0.124512
0.204773
0.223083
0.196228
0.18219
0.116577
0.0753784
0.0268555
0.0323486
0.0466919
0.0460815
0.0561523
0.00427246
-0.0845337
-0.138245
-0.177612
-0.0991821
-0.0738525
-0.0588989
0.0753784
0.262146
0.39978
0.438538
0.428772
0.427551
0.357666
0.254822
0.100403
0.0186157
0.0341797
0.116882
0.231323
0.235291
0.19928
0.0628662
-0.219727
-0.436401
-0.48645
-0.410461
-0.298767
-0.0723267
0.180359
0.315247
0.390625
0.250854
0.132751
-0.0378418
-0.193787
-0.40863
-0.49408
-0.397034
-0.234375
-0.116272
-0.13031
-0.220337
-0.289612
-0.271301
-0.232544
-0.23407
-0.266724
-0.242615
-0.1474
-0.0680542
0.022583
0.0540161
0.0930786
0.0799561
-0.0131226
-0.0100708
0.0839233
0.114136
0.0881958
0.122986
0.257568
0.351562
0.422668
0.400085
0.401917
0.351868
0.12146
-0.0897217
-0.195923
-0.215454
-0.138245
0.0949097
0.341492
0.339661
0.0631714
-0.148621
-0.233765
-0.226135
-0.166016
-0.122375
-0.111389
-0.0469971
0.0683594
0.0787354
0.0469971
0.0442505
0.0354004
0.0650024
0.106812
0.153198
0.16571
0.0689697
-0.0479126
-0.0888062
-0.132446
-0.163269
-0.109558
-0.0726318
-0.0631714
-0.0579834
-0.039978
0.0579834
0.125732
0.158081
0.0579834
-0.100403
-0.204163
-0.295105
-0.312195
-0.233765
-0.022583
0.12207
0.180054
0.173645
0.112305
0.0442505
0.0286865
0.00335693
-0.00732422
-0.0445557
-0.0656128
-0.0158691
0.0119019
0.0485229
0.0402832
0.0265503
0.0482178
0.0830078
0.147705
0.180969
0.11261
-0.0012207
-0.0463867
-0.0830078
-0.1297
-0.176086
-0.167847
-0.117493
0.0204468
0.177917
0.286865
0.353699
0.333252
0.198059
0.145264
0.108948
0.116882
0.197144
0.214233
0.172119
0.134583
0.176086
0.196838
0.289001
0.412292
0.447083
0.308228
0.0939941
-0.244446
-0.439758
-0.460205
-0.486755
-0.557861
-0.479431
-0.264587
-0.0790405
-0.083313
-0.0558472
-0.0952148
-0.160217
-0.136719
-0.0576782
0.0430298
0.0854492
0.0643921
-0.0701904
-0.156555
-0.206604
-0.271301
-0.328064
-0.341797
-0.28595
-0.242004
-0.175171
-0.0750732
0.0125122
0.000305176
-0.0216675
-0.0561523
-0.0741577
-0.0894165
-0.132751
-0.0967407
0.0115967
0.168762
0.236816
0.167236
0.117493
0.135498
0.153198
0.128479
0.0814819
-0.0308228
-0.0839233
-0.103455
-0.101929
-0.0650024
-0.0198364
0.102844
0.158997
0.148621
0.181885
0.263672
0.255737
0.19165
0.106812
0.0338745
0.00946045
-0.00152588
0.0375366
0.0918579
0.148315
0.154724
0.072937
-0.0219727
-0.0817871
-0.0564575
0.0811768
0.290833
0.47699
0.524902
0.453491
0.305481
0.09552
-0.0692749
-0.153809
-0.108337
0.000610352
0.098877
0.144958
0.164185
0.144958
0.0854492
-0.0463867
-0.180969
-0.28717
-0.374146
-0.389709
-0.324707
-0.189819
-0.00732422
0.0289917
-0.0308228
-0.0479126
-0.0973511
-0.178528
-0.227661
-0.127258
0.0997925
0.237732
0.265198
0.161133
0.0515747
0.00183105
-0.0552368
-0.108337
-0.194397
-0.25177
-0.26062
-0.217285
-0.151978
-0.0772095
-0.0311279
-0.0256348
0.00427246
0.0454712
0.0387573
0.0497437
0.0341797
-0.0152588
-0.0335693
-0.00488281
0.0448608
0.00640869
-0.0619507
-0.0817871
-0.10437
-0.0561523
0.0427246
0.0500488
0.0460815
0.0427246
0.0219727
-0.0704956
-0.136414
-0.168457
-0.168762
-0.181885
-0.158691
-0.179138
-0.220337
-0.126953
0.0216675
0.140381
0.225525
0.253601
0.255737
0.202026
0.0537109
-0.062561
-0.0753784
-0.0180054
-0.00701904
0.0177002
0.0527954
0.120239
0.19928
0.308838
0.325623
0.299988
0.24292
0.179443
0.106812
0.0350952
0.0338745
0.0854492
0.0915527
0.0939941
0.0778198
-0.00640869
-0.109253
-0.172119
-0.174561
-0.140076
-0.0112915
0.19989
0.257874
0.192261
0.110474
0.0219727
-0.0177002
-0.0296021
-0.150452
-0.300598
-0.404358
-0.45166
-0.430908
-0.321045
-0.195007
-0.0997925
-0.0317383
0.0115967
0.0585938
0.0549316
-0.0170898
-0.0863647
-0.0860596
-0.0949097
-0.0167847
0.209045
0.458679
0.317078
0.0662231
-0.00396729
-0.0415039
-0.0369263
-0.067749
-0.0741577
-0.0106812
0.0418091
0.0436401
0.0292969
0.0354004
0.0524902
0.0674438
0.144653
0.187378
0.134277
0.0390625
-0.0299072
-0.072937
-0.0521851
-0.0100708
0.0250244
0.0808716
0.107727
0.126038
0.0164795
-0.11322
-0.158386
-0.187683
-0.194397
-0.1651
-0.158691
-0.11261
-0.0881958
-0.104065
-0.112
0
0.104675
0.119324
0.148926
0.196533
0.230408
0.258179
0.328064
0.325317
0.250854
0.213928
0.200806
0.166931
0.166931
0.247803
0.285034
0.262451
0.155945
-0.071106
-0.345154
-0.566101
-0.587158
-0.423584
-0.282898
-0.228577
-0.139465
-0.0424194
0.0164795
0.0650024
0.0753784
0.0689697
0.0759888
0.0271606
0.00183105
-0.062561
-0.14679
-0.219421
-0.235901
-0.195923
-0.0491333
0.0900269
0.177917
0.240173
0.267639
0.234985
0.159302
0.0424194
-0.0753784
-0.12207
-0.164185
-0.142517
-0.0537109
0.0411987
0.0646973
0.0143433
0.0311279
0.0961304
0.0778198
0.0576782
0.0857544
0.134583
0.109863
0.101624
0.0918579
0.098877
0.143433
0.145264
0.122986
0.085144
0.0341797
-0.0723267
-0.219421
-0.256348
-0.211792
-0.144043
-0.0949097
-0.0839233
-0.13855
-0.177612
-0.157471
-0.13916
-0.105896
-0.0561523
-0.0363159
-0.0332642
-0.0561523
-0.123291
-0.152588
-0.144653
-0.0448608
0.085144
0.122375
0.0970459
0.0561523
0.0582886
0.0769043
0.0448608
-0.0149536
-0.0827026
-0.0683594
-0.0149536
-0.0320435
-0.00946045
-0.0894165
-0.125122
-0.0778198
-0.0189209
0.038147
0.142517
0.257874
0.244446
0.2005
0.176392
0.1474
0.113525
0.0701904
0.0720215
0.152283
0.229797
0.288696
0.30365
0.259705
0.114441
-0.0201416
-0.137634
-0.219116
-0.279846
-0.312195
-0.328369
-0.350037
-0.318604
-0.253296
-0.166016
-0.0466919
0.0912476
0.196838
0.175476
0.148315
0.14679
0.179443
0.206299
0.270081
0.314636
0.336609
0.312195
0.299683
0.229187
0.196228
0.116577
-0.0408936
-0.224609
-0.269165
-0.294189
-0.371704
-0.387878
-0.319214
-0.246277
-0.177307
0.0192261
0.278015
0.389099
0.281677
0.0338745
-0.0146484
-0.0112915
-0.157776
-0.262146
-0.279236
-0.229797
-0.20874
-0.19043
-0.14679
-0.108032
-0.13092
-0.172424
-0.108948
-0.0119019
-0.00518799
-0.00213623
0.0463867
0.0918579
0.0604248
0.0216675
-0.00305176
-0.0469971
-0.0946045
-0.13092
-0.154724
-0.131531
-0.116272
-0.132446
-0.148315
-0.114746
-0.0653076
-0.0265503
-0.00457764
0.0827026
0.201416
0.235596
0.169373
0.0869751
0.138855
0.186462
0.151367
0.168152
0.213013
0.235596
0.201416
0.124817
0.0668335
0.0119019
-0.039978
-0.0756836
-0.10437
-0.154724
-0.165405
-0.178223
-0.173035
-0.144958
-0.116272
-0.0686646
0.00701904
0.123901
0.146179
0.143433
0.0994873
0.0253296
-0.0238037
-0.0479126
-0.0201416
0.0891113
0.28717
0.498352
0.738831
0.723572
0.508423
0.212708
-0.0283813
-0.138245
-0.219727
-0.221863
-0.178528
-0.191956
-0.19165
-0.0292969
0.0457764
-0.0448608
-0.159912
-0.240784
-0.245667
-0.204773
-0.173645
-0.0863647
0.0152588
0.0817871
0.196533
0.270691
0.235291
0.083313
-0.0231934
-0.0210571
0.065918
0.0466919
-0.0491333
-0.109863
-0.0686646
-0.0665283
-0.116577
-0.122375
-0.108337
-0.108032
-0.0250244
0.0305176
0.020752
0.0509644
0.0289917
0.0149536
0.100098
0.254517
0.429382
0.60791
0.749817
0.636292
0.292053
0.0372314
-0.0811768
-0.271301
-0.369873
-0.35553
-0.313416
-0.297241
-0.318604
-0.383606
-0.439758
-0.531006
-0.586853
-0.547791
-0.552368
-0.58197
-0.504761
-0.317993
-0.118713
0.0604248
0.250244
0.379028
0.420837
0.474548
0.401611
0.206909
0.090332
-0.00305176
-0.057373
-0.109558
-0.0735474
0.00946045
0.165405
0.262146
0.242004
0.196838
0.151367
0.0741577
0.0662231
0.134888
0.275269
0.403748
0.392761
0.270081
0.0857544
-0.0415039
-0.0415039
-0.0247192
-0.0219727
-0.0210571
-0.00579834
0.0146484
0.0671387
0.167542
0.26886
0.182495
0.0512695
0.00976562
-0.0308228
-0.164185
-0.236206
-0.238953
-0.228577
-0.174866
-0.0869751
-0.0112915
-0.0088501
-0.0561523
-0.131836
-0.189819
-0.25238
-0.299988
-0.300598
-0.333557
-0.269775
-0.19104
-0.133057
-0.152893
-0.202637
-0.20813
-0.0292969
0.229187
0.447083
0.422058
0.311279
0.163879
0.0244141
-0.00610352
0.0616455
0.0866699
0.0808716
0.0823975
0.0924683
0.128174
0.219116
0.333862
0.379333
0.265808
0.0695801
-0.0604248
-0.0772095
-0.0369263
0.0238037
0.0491333
0.00549316
-0.0991821
-0.150757
-0.178223
-0.233459
-0.256958
-0.246582
-0.203552
-0.088501
-0.0213623
0.148621
0.362244
0.513916
0.621643
0.632935
0.556946
0.422058
0.191345
-0.140381
-0.3125
-0.30426
-0.286865
-0.341492
-0.371704
-0.284424
-0.219116
-0.204773
-0.25238
-0.282898
-0.236206
-0.172424
-0.0765991
-0.00610352
0.0973511
0.220032
0.28656
0.158997
0.0418091
0.0436401
-0.0109863
-0.162048
-0.23407
-0.267029
-0.255432
-0.227966
-0.167236
0.0616455
0.249939
0.455322
0.52887
0.403137
0.19989
-0.032959
-0.118408
-0.137939
-0.120239
-0.13855
-0.190735
-0.131531
0.0863647
0.180969
0.215454
0.23407
0.174561
0.0875854
0.0268555
0.0595093
-0.00213623
-0.0183105
0.0259399
0.0848389
0.115967
0.105286
-0.010376
-0.106506
-0.140686
-0.108948
-0.0375366
-0.00488281
0.0457764
0.0759888
0.0860596
0.212402
0.299377
0.182495
0.0369263
-0.0473022
0.00518799
0.0997925
0.124817
0.0308228
-0.0689697
-0.197449
-0.219116
-0.194092
-0.240173
-0.316467
-0.306702
-0.206604
-0.14801
-0.0717163
0.0759888
0.236206
0.270691
0.244446
0.188904
0.0915527
-0.0500488
-0.200195
-0.219421
-0.154419
-0.0283813
-0.00335693
-0.131836
-0.290833
-0.361328
-0.303345
-0.163269
0.0161743
0.162964
0.263367
0.302429
0.263062
0.155945
0.0106812
-0.0958252
-0.110168
-0.109558
-0.0863647
-0.0610352
-0.0152588
0.0384521
0.10376
0.232239
0.374756
0.469055
0.452881
0.336609
0.125427
-0.131836
-0.31311
-0.419006
-0.41626
-0.281982
-0.117188
-0.0900269
-0.0634766
-0.00854492
-0.0119019
0.0115967
0.0164795
-0.0167847
0.0189209
0.0613403
0.0744629
0.0637817
0.0408936
-0.0119019
-0.0515747
-0.057373
-0.0473022
-0.0637817
-0.0408936
0.126038
0.340576
0.466309
0.550232
0.460815
0.284119
0.109558
-0.0714111
-0.121765
-0.106812
-0.083313
-0.0604248
-0.170593
-0.274353
-0.274353
-0.145264
0.0183105
0.19165
0.298157
0.162354
-0.0479126
-0.0949097
-0.108948
-0.174255
-0.163879
-0.212402
-0.26123
-0.264587
-0.226135
-0.17395
-0.123291
-0.0631714
-0.0250244
-0.0143433
-0.03479
-0.0506592
-0.0201416
-0.0119019
0.00427246
0.12207
0.357666
0.434875
0.351868
0.236206
0.0524902
-0.106506
-0.154724
-0.183716
-0.213013
-0.261841
-0.244141
-0.159302
-0.102234
-0.043335
0.0567627
0.152588
0.201721
0.271912
0.235901
0.0808716
-0.0570679
-0.154114
-0.169678
-0.055542
0.0253296
0.0753784
0.131226
0.248413
0.314941
0.253601
0.120544
-0.0393677
-0.172119
-0.221863
-0.235901
-0.256958
-0.0805664
-0.00793457
-0.017395
0.0518799
0.0790405
0.0997925
0.151062
0.250549
0.281067
0.176697
0.0115967
-0.0741577
0.00488281
0.130615
0.226135
0.290527
0.315857
0.201111
0.00274658
-0.151978
-0.322571
-0.432739
-0.491638
-0.438538
-0.375061
-0.318298
-0.274353
-0.323486
-0.37384
-0.290222
-0.108337
-0.00610352
0.00549316
0.0460815
0.0793457
0.170288
0.296326
0.421143
0.432129
0.278015
0.186462
0.169678
0.11261
-0.0408936
-0.126038
-0.161743
-0.116577
-0.0299072
0.00305176
0.0558472
0.0680542
0.0973511
0.124207
0.138855
0.128174
0.0521851
0.00823975
-0.0579834
-0.21637
-0.343933
-0.352478
-0.20874
-0.0537109
-0.00305176
-0.0518799
0.00701904
0.0946045
0.0918579
0.133057
0.244446
0.387573
0.464478
0.492554
0.414429
0.221558
0.06073
-0.162659
-0.292358
-0.25177
-0.148315
-0.137939
-0.0769043
-0.0109863
-0.0180054
-0.00946045
0.111084
0.253601
0.255737
0.114441
-0.00762939
0
-0.0424194
-0.0570679
-0.129395
-0.276184
-0.379639
-0.411682
-0.402222
-0.35553
-0.326233
-0.231934
0.0524902
0.228577
0.401306
0.476685
0.475769
0.389709
0.207825
-0.0668335
-0.164185
-0.195618
-0.217285
-0.173035
-0.0915527
-0.0140381
0.0622559
0.111084
0.102539
0.0900269
0.0662231
0.0241089
-0.0234985
-0.020752
-0.0320435
-0.0411987
-0.0317383
-0.0204468
-0.0134277
-0.0158691
-0.0283813
-0.0198364
0.00396729
-0.0234985
0.0195312
0.0375366
0.0283813
0.0213623
0.109558
0.196228
0.226746
0.250549
0.280762
0.248108
0.083313
-0.0686646
-0.0869751
-0.109558
-0.141907
-0.177917
-0.25177
-0.337524
-0.368958
-0.215149
-0.100403
-0.0387573
-0.0100708
0.0149536
0.0875854
0.0302124
-0.057373
-0.0482178
0.00457764
-0.0238037
-0.124207
-0.163574
-0.128174
-0.0109863
0.0964355
0.13855
0.126343
0.111084
0.130615
0.108948
-0.0494385
-0.140991
-0.0793457
0.0143433
0.0637817
0.179443
0.404663
0.410461
0.214539
-0.00701904
-0.140686
-0.223083
-0.142212
-0.00762939
0.0735474
0.186768
0.272217
0.281677
0.270386
0.164795
-0.0430298
-0.184021
-0.113525
-0.0405884
0.00457764
0.0405884
0.0387573
-0.0292969
-0.0747681
-0.0765991
-0.027771
0.0946045
0.262756
0.358276
0.270691
0.0326538
-0.156555
-0.2771
-0.332642
-0.291138
-0.145569
-0.072937
-0.0802612
-0.0491333
-0.0494385
-0.0512695
-0.0845337
-0.0949097
-0.0915527
-0.0518799
-0.0231934
0.0848389
0.272522
0.299377
0.222168
0.195007
0.143127
0.0793457
0.0378418
0.00244141
-0.0827026
-0.131226
-0.113831
-0.0921631
-0.0509644
-0.00854492
-0.0418091
-0.0982666
-0.140381
-0.1474
-0.220642
-0.285339
-0.256653
-0.198364
-0.0909424
0.0961304
0.313416
0.46936
0.57312
0.448608
0.184326
-0.144348
-0.281982
-0.206299
-0.107117
-0.0463867
-0.0485229
-0.105896
-0.0973511
-0.0650024
-0.00671387
0.0527954
0.0177002
-0.0250244
-0.0317383
-0.129089
-0.226746
-0.196533
-0.0723267
0.0671387
0.20813
0.273438
0.158997
0.128479
0.311584
0.41687
0.376282
0.241089
0.177002
0.0540161
-0.0509644
-0.0445557
-0.0253296
-0.0186157
-0.0509644
-0.0427246
-0.0512695
-0.0534058
-0.114746
-0.210876
-0.267334
-0.158997
0.0500488
0.162048
0.281372
0.513916
0.604858
0.53009
0.412292
0.211487
-0.0650024
-0.282593
-0.378723
-0.412903
-0.462952
-0.560303
-0.662231
-0.660706
-0.58136
-0.416565
-0.163879
0.0476074
0.133972
0.206299
0.251465
0.267334
0.210266
0.102539
0.0949097
0.144958
0.140686
0.103455
0.0491333
0.0088501
0.0485229
0.0894165
0.16571
0.213623
0.220337
0.16571
0
-0.210876
-0.379333
-0.464172
-0.498657
-0.467834
-0.21759
0.110779
0.300903
0.218506
0.102539
0.0146484
-0.0100708
0.022583
0.0982666
0.187073
0.181885
0.101624
0.0253296
-0.0567627
-0.136108
-0.14679
-0.120239
-0.0494385
0.00152588
0.0177002
0.0802612
0.278625
0.401611
0.452271
0.339355
0.158081
-0.03479
-0.157776
-0.1297
0.0360107
0.220642
0.317688
0.325623
0.263672
0.291138
0.381775
0.427246
0.394592
0.233765
-0.134888
-0.412598
-0.437012
-0.340881
-0.258484
-0.186462
-0.1474
-0.107727
-0.0753784
-0.101013
-0.189209
-0.276489
-0.276184
-0.258179
-0.253601
-0.357971
-0.4422
-0.381775
-0.203552
0.00793457
0.251465
0.259705
0.120544
0.0201416
0.0839233
0.105591
0.0863647
0.0244141
-0.0637817
-0.117188
-0.119019
-0.039978
0.0646973
0.169067
0.246582
0.366516
0.470581
0.611877
0.799255
0.921021
0.79895
0.541687
0.329285
0.0579834
-0.202942
-0.370178
-0.461121
-0.518494
-0.523376
-0.493164
-0.39917
-0.265503
-0.225525
-0.160217
-0.120544
-0.0894165
-0.0680542
-0.0616455
-0.113831
-0.328369
-0.379639
-0.254211
-0.134583
-0.0863647
-0.0161743
0.0942993
0.113525
0.0588989
0.0448608
0.03479
0.00457764
-0.0485229
-0.118713
-0.134277
-0.106201
-0.118713
-0.0717163
0.0115967
0.115356
0.147705
0.142822
0.0985718
0.0549316
0.0302124
0.0357056
0.0134277
0.0393677
0.125122
0.157166
0.119324
0.13031
0.111694
0.0952148
0.0692749
0.0219727
0.0460815
0.107117
0.0646973
-0.0354004
-0.176392
-0.211182
-0.134888
-0.0698853
-0.0518799
-0.0579834
-0.0283813
-0.0253296
-0.0180054
-0.0637817
-0.149536
-0.112305
-0.00976562
0.0802612
0.153198
0.193176
0.222473
0.308228
0.318604
0.360107
0.436707
0.447388
0.364075
0.238037
0.142517
0.062561
0
0.00701904
0.0128174
0.0918579
0.215149
0.326843
0.302124
0.189514
-0.00549316
-0.304565
-0.478821
-0.559692
-0.656738
-0.676575
-0.519104
-0.221252
0.00396729
0.0537109
-0.00762939
-0.0704956
-0.108337
-0.0942993
0.0149536
0.162354
0.220032
0.2005
0.146179
0.00396729
-0.121155
-0.207214
-0.267639
-0.254211
-0.25116
-0.219421
-0.0439453
0.0335693
0.0357056
0.0308228
-0.0274658
-0.0494385
-0.100403
-0.158081
-0.137939
-0.0732422
-0.0427246
0.0430298
0.0820923
0.0613403
0.0854492
0.147705
0.126953
0.108032
0.0921631
0.0164795
-0.017395
0.0131226
0.0177002
0.00946045
0.00762939
-0.0631714
-0.0958252
0.0253296
0.213318
0.264587
0.252075
0.214539
0.168152
0.12207
0.102539
0.151672
0.182495
0.140686
-0.022583
-0.248718
-0.429993
-0.486145
-0.385437
-0.167542
0.0912476
0.189514
0.169678
0.133972
0.072937
0.00579834
-0.00152588
0.117188
0.296631
0.364685
0.377502
0.311279
0.106506
-0.125732
-0.227356
-0.201416
-0.145874
-0.0686646
0.0402832
0.0656128
0.038147
-0.0222778
-0.170898
-0.288086
-0.335999
-0.332336
-0.301208
-0.361633
-0.403137
-0.37262
-0.295715
-0.130615
0.113831
0.27832
0.310974
0.188599
0.0888062
0.0723267
0.113525
0.137024
0.155945
0.292664
0.434875
0.443726
0.380554
0.281982
0.184631
0.0827026
0.0180054
-0.050354
-0.106201
-0.140991
-0.1651
-0.0921631
-0.00152588
0.0958252
0.142822
0.148621
0.150452
0.135498
0.0570679
-0.0302124
-0.126038
-0.153503
-0.0405884
0.0689697
0.0799561
0.0656128
0.0244141
-0.0588989
-0.0552368
-0.0100708
0.0473022
0.133667
0.236511
0.258484
0.160828
0.0152588
-0.113831
-0.146484
-0.195618
-0.247192
-0.229492
-0.189514
-0.162354
-0.0872803
0.0482178
0.0375366
-0.1297
-0.277405
-0.343933
-0.310059
-0.270996
-0.134277
0.0744629
0.0881958
0.00213623
-0.0982666
-0.0665283
0.0350952
0.0512695
0
-0.0540161
0.0137329
0.057373
0.154419
0.25238
0.348816
0.404358
0.500488
0.571594
0.506592
0.309753
0.18158
0.0372314
-0.196533
-0.357971
-0.500183
-0.505676
-0.335693
-0.11322
0.0186157
0.00823975
-0.0259399
-0.0201416
-0.00579834
0.0250244
0.0546265
0.0192261
-0.0238037
-0.0671387
-0.125122
-0.156555
-0.111694
-0.0469971
0.0180054
0.0448608
0.0314331
-0.00152588
-0.00946045
0.0134277
0.0427246
0.0680542
0.11261
0.13031
0.0735474
0.0216675
-0.012207
-0.0689697
-0.126038
-0.20874
-0.305176
-0.289001
-0.163269
-0.039978
0.100098
0.238037
0.350952
0.389099
0.335693
0.258179
0.233154
0.189514
0.105286
-0.00823975
-0.0836182
-0.090332
-0.0405884
0.128479
0.224304
0.133362
-0.0274658
-0.133057
-0.194397
-0.218811
-0.139771
-0.0344849
-0.0146484
-0.0384521
-0.027771
-0.0567627
-0.137329
-0.231018
-0.289612
-0.328674
-0.283203
-0.0830078
0.149536
0.306702
0.251465
0.121155
0.0576782
0.0595093
0.0244141
-0.00579834
0.00305176
-0.00488281
-0.00366211
-0.0164795
-0.0704956
-0.0415039
0.00488281
0.0289917
-0.00366211
-0.0393677
0.0253296
0.119934
0.173645
0.150452
0.119019
0.0622559
0.065918
0.126343
0.19165
0.245972
0.185242
0.0119019
-0.129395
-0.206604
-0.250244
-0.196533
-0.127258
-0.0442505
0.0112915
0.0793457
0.1828
0.233765
0.227966
0.213623
0.101624
-0.115662
-0.319214
-0.397644
-0.467224
-0.444946
-0.307922
-0.216675
-0.127258
-0.0750732
-0.0231934
0.0497437
0.071106
0.105896
0.254822
0.43457
0.499878
0.520325
0.435791
0.214539
-0.0640869
-0.192261
-0.228882
-0.327148
-0.320129
-0.256042
-0.150146
-0.0473022
0.124207
0.22644
0.0897217
-0.0952148
-0.209351
-0.312805
-0.342407
-0.258484
-0.185852
-0.114441
-0.043335
0.0802612
0.110779
0.0912476
0.0289917
-0.0805664
-0.187988
-0.158997
-0.0384521
0.0613403
0.223999
0.357361
0.410461
0.38147
0.281982
0.131836
0
-0.0891113
-0.156555
-0.227356
-0.195007
-0.137024
-0.0805664
0.000610352
0.00366211
-0.0302124
-0.0192261
0.0180054
0.0604248
0.0720215
0.0442505
-0.00854492
-0.0808716
-0.0930786
-0.0540161
-0.0183105
0.0524902
0.147095
0.238037
0.350037
0.487976
0.497131
0.426331
0.345154
0.229797
0.0622559
-0.126648
-0.202026
-0.207214
-0.188293
-0.177307
-0.133362
-0.0512695
0.0131226
0.107422
0.243835
0.17334
0.0982666
0.0793457
0.0289917
-0.153198
-0.332031
-0.413513
-0.458374
-0.420837
-0.391235
-0.318909
-0.0933838
0.125427
0.18158
0.163879
0.215759
0.254517
0.291748
0.267029
0.218506
0.0982666
-0.00244141
-0.0842285
-0.0933838
-0.078125
-0.128479
-0.176086
-0.256653
-0.326843
-0.316467
-0.171814
-0.0668335
-0.0332642
0.0646973
0.13092
0.0799561
-0.0137329
-0.0271606
0.00701904
0.115662
0.209045
0.229492
0.264893
0.3125
0.305786
0.238037
0.169983
0.133667
0.106506
0.00946045
-0.0408936
-0.0231934
0.00854492
0.0106812
0.0463867
-0.0119019
-0.0866699
-0.0445557
0.045166
0.0543213
0.14801
0.213623
0.0958252
0.0143433
-0.0686646
-0.0656128
-0.0509644
-0.0402832
0.0131226
0.0668335
0.130005
0.20874
0.283508
0.279236
0.21698
0.104675
-0.0695801
-0.204773
-0.274963
-0.276794
-0.229187
-0.171509
-0.149841
-0.139465
-0.134888
-0.115051
-0.0265503
0.118103
0.246277
0.25238
0.235901
0.20813
0.000915527
-0.297852
-0.393372
-0.328674
-0.26886
-0.207214
-0.0656128
0.0509644
0.0997925
0.216064
0.247803
0.229492
0.234375
0.190735
0.119019
0.0698853
0.0302124
0.00457764
0.0695801
0.229187
0.404968
0.617065
0.866699
0.982361
0.907288
0.602417
0.153198
-0.218201
-0.338135
-0.318604
-0.333862
-0.366211
-0.346069
-0.31311
-0.301208
-0.26886
-0.197754
-0.138245
-0.101318
-0.0564575
-0.0143433
0.0131226
0.0134277
0.0500488
0.06073
0.0192261
-0.0350952
-0.0802612
-0.141907
-0.202637
-0.220947
-0.311584
-0.357971
-0.262756
-0.0735474
0.0405884
0.0302124
-0.0283813
-0.121765
-0.170593
-0.1297
0.0582886
0.180664
0.299377
0.214539
0.0839233
0.0238037
0.0262451
0.0869751
0.243835
0.307617
0.302734
0.303955
0.28595
0.180969
0.0537109
-0.0332642
-0.098877
-0.154114
-0.161743
-0.139771
-0.125427
-0.107117
-0.0817871
-0.0448608
0.0241089
0.0814819
0.0753784
0.0485229
0.0765991
0.0689697
-0.0354004
-0.124207
-0.132141
-0.167542
-0.173645
-0.15564
-0.0250244
0.155029
0.261536
0.272522
0.300293
0.233154
0.0964355
0.057373
0.0952148
0.0518799
-0.0137329
-0.101013
-0.131531
-0.115051
-0.0982666
-0.0750732
-0.0427246
0.000305176
0.0332642
-0.0198364
-0.0714111
-0.0427246
-0.0106812
-0.0274658
-0.111389
-0.123596
-0.0961304
0.00610352
0.119629
0.265503
0.440063
0.494995
0.464478
0.366516
0.170288
0.0485229
0.0146484
-0.078125
-0.279846
-0.426941
-0.486145
-0.413208
-0.237122
-0.0643921
0.0192261
0.0415039
0.0140381
-0.0567627
-0.038147
0.0189209
0.0500488
0.00396729
-0.0326538
-0.020752
-0.0296021
-0.0527954
-0.067749
-0.0485229
0.00549316
0.0933838
0.167847
0.215759
0.217285
0.208435
0.197449
0.0918579
-0.017395
-0.115051
-0.134888
-0.0866699
-0.0549316
-0.0125122
-0.0393677
-0.0942993
-0.136414
-0.184021
-0.249634
-0.221252
-0.136108
-0.0466919
0.00762939
0.0299072
0.0634766
0.0753784
0.0836182
0.0836182
0.0393677
0.0973511
0.111389
0.0341797
-0.0372314
-0.0985718
-0.0991821
0.00549316
0.0534058
0.043335
0.112305
0.179749
0.1828
0.168762
0.211182
0.259094
0.327454
0.379333
0.348206
0.154114
0.0341797
0
-0.0366211
-0.143127
-0.24231
-0.325317
-0.337524
-0.319519
-0.326233
-0.267334
-0.166321
-0.122986
-0.0964355
-0.130005
-0.201416
-0.230713
-0.210571
-0.126648
-0.0714111
-0.0247192
0.0576782
0.117493
0.098877
0.050354
0.0350952
0.0320435
0.0302124
0.0588989
0.0680542
0.0387573
-0.0631714
-0.0973511
0.00976562
0.121155
0.155334
0.141296
0.0912476
-0.0418091
-0.198059
-0.221558
-0.038147
0.254211
0.352478
0.413513
0.414734
0.344238
0.232849
0.114441
-0.020752
-0.102844
-0.0796509
-0.0491333
-0.0534058
-0.0765991
-0.143127
-0.211182
-0.296631
-0.295715
-0.226135
-0.134888
-0.0839233
-0.108337
-0.116272
-0.107117
-0.155945
-0.189819
-0.161438
-0.115662
-0.0894165
-0.0344849
-0.100403
-0.162964
-0.236206
-0.335388
-0.333252
-0.180054
0.0369263
0.125427
0.13031
0.0900269
0.00946045
-0.0463867
0.00946045
0.0946045
0.093689
0.0543213
-0.0140381
0.0219727
0.0424194
0.0216675
0.00518799
0.00488281
-0.0378418
-0.0488281
0.000305176
0.0714111
0.153503
0.229797
0.280457
0.274048
0.251465
0.142212
0.0442505
-0.0543213
-0.0671387
-0.0637817
-0.0131226
0.116882
0.16571
0.192261
0.249634
0.343628
0.376587
0.462341
0.488281
0.393677
0.269775
0.0866699
-0.00183105
-0.148926
-0.256042
-0.242615
-0.196838
-0.22522
-0.284729
-0.207214
-0.137024
-0.151978
-0.229187
-0.264587
-0.279236
-0.231934
-0.167542
-0.124512
-0.0692749
-0.0320435
-0.0201416
-0.0100708
0.00213623
-0.0454712
-0.0274658
-0.0302124
-0.072937
-0.14801
-0.185547
-0.242615
-0.20813
-0.181274
-0.191956
-0.157471
-0.0448608
0.0375366
0.098877
0.132751
0.0909424
-0.00854492
-0.151672
-0.151062
-0.0985718
0.0448608
0.184326
0.184937
0.22644
0.206909
0.134888
0.121155
0.132751
0.11322
0.0537109
0.0192261
0.0408936
0.078125
0.0875854
0.10437
0.151367
0.19928
0.194397
0.164795
0.0973511
-0.0152588
-0.151978
-0.191956
-0.176392
-0.124512
-0.0906372
-0.105286
-0.0827026
-0.0439453
0.0405884
0.168152
0.250244
0.246887
0.108643
0.000610352
0.00335693
0.0576782
0.151672
0.171509
0.226746
0.170898
-0.0442505
-0.232239
-0.304871
-0.329285
-0.350342
-0.375366
-0.318298
-0.154419
0.0244141
0.152283
0.253296
0.164185
0.045166
-0.112
-0.169983
-0.107727
-0.03479
-0.0296021
0.0280762
0.0897217
0.083313
0.0479126
0.0558472
0.0521851
0.022583
0.0262451
0.0234985
0.0341797
0.071106
0.0839233
0.0570679
0.0115967
0.00213623
-0.00579834
-0.0247192
-0.00305176
0.0491333
0.0570679
0.0152588
-0.0476074
-0.130005
-0.151978
-0.160828
-0.1297
-0.128479
-0.0869751
-0.0628662
-0.0741577
-0.0714111
-0.0888062
-0.130615
-0.105286
-0.0201416
0.0802612
0.188293
0.273743
0.266113
0.221252
0.160217
0.09552
0.0805664
0.0814819
0.0411987
0.0305176
0
-0.0500488
-0.121765
-0.185852
-0.205688
-0.203552
-0.115662
0.0195312
0.183105
0.249329
0.230713
0.12085
-0.0726318
-0.204468
-0.247192
-0.201111
-0.0915527
0.032959
0.192566
0.320435
0.375366
0.295105
0.121155
-0.0167847
0
0.0234985
-0.0457764
-0.16571
-0.316467
-0.354919
-0.308533
-0.241394
-0.14679
-0.015564
0.115967
0.189209
0.128784
0.00671387
-0.0622559
-0.0473022
0.0131226
0.0543213
0.098877
0.0769043
-0.0283813
-0.0985718
-0.0762939
0.00244141
0.0457764
0.103149
0.229492
0.359802
0.366821
0.279236
0.228577
0.142822
0.0109863
-0.11261
-0.171814
-0.198364
-0.188599
-0.0750732
-0.00579834
-0.00732422
0.0161743
0.0189209
-0.0198364
-0.045166
-0.114746
-0.167542
-0.21759
-0.314331
-0.332336
-0.259094
-0.0942993
0.0842285
0.241699
0.327148
0.350952
0.287781
0.0827026
-0.0845337
-0.108948
-0.0375366
0.0463867
0.0888062
0.177917
0.322876
0.461121
0.566711
0.641785
0.640869
0.53833
0.370789
0.0997925
-0.126343
-0.26123
-0.328674
-0.372314
-0.440979
-0.449829
-0.467529
-0.439148
-0.335083
-0.180359
-0.0708008
-0.0396729
-0.071106
-0.110168
-0.164795
-0.210266
-0.20874
-0.170898
-0.0982666
-0.0592041
-0.085144
-0.0772095
-0.0387573
-0.0189209
0.0561523
0.138855
0.2005
0.18219
0.125732
0.0888062
0.0436401
-0.0271606
-0.119934
-0.198669
-0.154114
-0.103149
-0.114136
-0.0796509
0.00274658
0.062561
0.0802612
0.0534058
0.0180054
0.012207
0.032959
0.0952148
0.115967
0.142517
0.177917
0.124207
0.0765991
0.0363159
-0.0268555
-0.0509644
0.00976562
0.0769043
0.06073
0.0268555
-0.0106812
0.0262451
0.128174
0.108948
0.055542
0.00762939
0.0198364
0.0772095
0.0704956
0.0302124
0.0326538
0.0332642
-0.0491333
-0.133972
-0.0515747
0.0881958
0.0900269
0.0244141
-0.015564
0
0.0411987
0.103455
0.149536
0.142517
0.0140381
-0.0775146
-0.167236
-0.209656
-0.226746
-0.183716
-0.150146
-0.085144
-0.0967407
-0.0946045
-0.124817
-0.139465
-0.134583
-0.134888
-0.146179
-0.161743
-0.147705
-0.164795
-0.0970459
0.057373
0.258179
0.422058
0.515442
0.487976
0.398865
0.333557
0.219116
0.0350952
-0.0411987
-0.0811768
-0.123291
-0.145874
-0.213928
-0.254211
-0.224915
-0.156555
-0.140686
-0.142517
-0.0299072
0.0582886
0.0460815
0.0561523
0.0344849
-0.0140381
0.00518799
0.10498
0.229797
0.273743
0.212097
0.177917
0.125427
-0.0531006
-0.193176
-0.217896
-0.216064
-0.202637
-0.246887
-0.232239
-0.00549316
0.229492
0.284119
0.30304
0.224609
0.135498
0.0268555
-0.0302124
-0.00305176
0.0518799
0.119934
0.145874
0.132751
0.0744629
0.0192261
-0.0204468
-0.0997925
-0.166931
-0.0894165
0.0695801
0.154419
0.175476
0.18158
0.141602
-0.0439453
-0.183716
-0.16571
-0.112915
-0.137024
-0.244446
-0.288696
-0.254211
-0.180359
-0.116577
-0.0762939
0.039978
0.0842285
0.00518799
-0.0543213
-0.0643921
-0.0552368
-0.00274658
0.0769043
0.196533
0.28656
0.290833
0.198975
0.0726318
-0.133362
-0.392456
-0.623474
-0.722351
-0.680237
-0.491028
-0.114136
0.15625
0.247803
0.270081
0.32135
0.359192
0.331116
0.240173
0.13855
0.0646973
0.0326538
0.0576782
0.116882
0.152893
0.114136
0.0717163
0.093689
0.0991821
0.0888062
0.0567627
0.0442505
0.0643921
0.133667
0.211487
0.273743
0.365601
0.397339
0.418396
0.401917
0.372925
0.37323
0.361023
0.328674
0.223694
0.125732
-0.00213623
-0.256958
-0.470886
-0.479736
-0.46936
-0.500793
-0.531006
-0.407715
-0.27832
-0.13092
-0.0552368
-0.0491333
-0.0888062
-0.144653
-0.0881958
0.0491333
0.114136
0.169678
0.238647
0.314026
0.309143
0.26001
0.235291
0.169983
0.00854492
-0.185852
-0.264587
-0.270386
-0.240784
-0.169678
-0.144043
-0.180969
-0.202637
-0.222473
-0.196533
-0.088501
-0.0140381
0.0726318
0.0579834
-0.00946045
-0.110168
-0.143738
-0.0799561
0.0497437
0.179749
0.206604
0.184326
0.100403
-0.0344849
-0.0765991
-0.108948
-0.0314331
0.0744629
0.117493
0.154419
0.287476
0.418396
0.349426
0.174255
-0.00549316
-0.102844
-0.116882
-0.065918
0.0524902
0.251465
0.292053
0.144653
-0.0332642
-0.166321
-0.247803
-0.198059
-0.0881958
-0.0592041
-0.0668335
-0.0680542
-0.0454712
-0.0228882
-0.0271606
0.0253296
0.0653076
0.0527954
0.00488281
-0.0418091
-0.1297
-0.189819
-0.150452
-0.0335693
0.0323486
0.0354004
0.0384521
0.115662
0.295105
0.447083
0.436096
0.364075
0.323486
0.171814
-0.0869751
-0.192566
-0.219727
-0.18158
0.00457764
0.198059
0.239563
0.171509
0.0622559
-0.127869
-0.285339
-0.285034
-0.272522
-0.341187
-0.318298
-0.222473
-0.185852
-0.230408
-0.238342
-0.202026
-0.0466919
0.118103
0.257263
0.307007
0.315247
0.33783
0.306091
0.186768
0.00152588
-0.140686
-0.220947
-0.26123
-0.266724
-0.229797
-0.158691
-0.09552
-0.0720215
-0.0827026
-0.0796509
-0.050354
-0.177307
-0.237427
-0.203857
-0.121765
0.0405884
0.295105
0.458984
0.395813
0.271606
0.105896
-0.0247192
-0.0189209
0.0161743
0.045166
0.03479
-0.0234985
-0.0753784
-0.0250244
0.0619507
0.155945
0.125427
0.0769043
0.0686646
0.083313
0.0793457
0.188293
0.314941
0.265808
0.335693
0.422974
0.292053
-0.00152588
-0.302429
-0.367737
-0.346375
-0.325317
-0.192261
-0.0244141
0.0982666
0.0708008
-0.0405884
-0.180359
-0.220032
-0.21698
-0.151062
-0.10376
-0.0521851
0.0198364
-0.00488281
-0.0488281
-0.039978
0.0161743
0.121155
0.133667
0.0668335
0.0231934
0.0289917
0.0332642
-0.0317383
-0.158081
-0.207825
-0.209045
-0.141296
-0.015564
0.11322
0.242615
0.301208
0.287781
0.202637
0.0576782
-0.0576782
-0.125122
-0.11261
-0.0170898
0.0961304
0.18158
0.191956
0.159607
0.0900269
-0.0143433
-0.118713
-0.161743
-0.18158
-0.188293
-0.19043
-0.157166
-0.050354
0.00488281
0.00152588
-0.032959
-0.015564
0.0137329
0.020752
0.00335693
0.0320435
0.100708
0.141907
0.158691
0.179443
0.138245
0.0265503
-0.120544
-0.204773
-0.188599
-0.0964355
-0.0576782
0.0430298
0.149841
0.142822
0.085144
0.108337
0.280762
0.422668
0.471497
0.379639
0.200806
-0.0128174
-0.170593
-0.232239
-0.193176
-0.108948
0.0106812
0.152588
0.240173
0.249634
0.194092
0.104675
0.0628662
0.115356
0.251465
0.329285
0.306702
0.128784
-0.227051
-0.414124
-0.407715
-0.340271
-0.180054
-0.0158691
0.083313
0.0305176
-0.0311279
-0.0610352
-0.0790405
-0.2005
-0.315552
-0.369568
-0.358887
-0.284729
-0.243835
-0.204773
-0.171814
-0.0891113
0.00518799
0.0964355
0.108032
0.128784
0.193787
0.209656
0.155029
0.0930786
0.0512695
0.0140381
-0.0247192
-0.0405884
-0.0784302
-0.0808716
-0.111084
-0.125122
-0.0973511
-0.0100708
0.0564575
0.0479126
0.0543213
0.0570679
0.105286
0.11261
0.0671387
0.0234985
-0.0238037
-0.0952148
-0.176086
-0.27771
-0.311584
-0.28717
-0.180359
0.0460815
0.177917
0.239868
0.268555
0.298157
0.301514
0.286865
0.214233
0.192261
0.19104
0.171814
0.101624
0.078125
0.170288
0.281982
0.224304
0.122375
0
-0.0357056
-0.038147
-0.0369263
-0.0717163
-0.120544
-0.109253
-0.09552
-0.0418091
0.0280762
0.0454712
0.067749
0.0479126
-0.0405884
-0.085144
-0.0772095
-0.0195312
0.0106812
0.118408
0.30426
0.379944
0.398865
0.32196
0.0784302
-0.148315
-0.213928
-0.160828
-0.119934
-0.0296021
0.0485229
0.101318
0.147705
0.0473022
-0.187073
-0.370178
-0.380554
-0.314026
-0.237732
-0.153198
-0.136108
-0.190125
-0.221863
-0.195007
-0.180359
-0.157776
-0.134583
-0.0942993
-0.0320435
0.0283813
0.158691
0.261536
0.274658
0.290527
0.330505
0.192871
0.0427246
0.0192261
-0.0326538
-0.107117
-0.20752
-0.250244
-0.259705
-0.233765
-0.207825
-0.115051
-0.0537109
-0.0289917
0.0140381
0.0161743
0.0411987
0.150146
0.253906
0.227356
0.1297
0.0167847
-0.072937
-0.0302124
-0.0241089
-0.039978
-0.0204468
-0.0234985
0.015564
0.0756836
0.0720215
0.0592041
0.0369263
0.0427246
0.0567627
0.0817871
0.163879
0.254822
0.302734
0.330505
0.299377
0.231018
0.115967
0.0250244
-0.0967407
-0.177307
-0.220947
-0.174255
-0.10498
-0.101624
-0.106506
-0.0469971
-0.0274658
0.0921631
0.269165
0.451355
0.53772
0.431824
0.0933838
-0.343323
-0.475769
-0.43396
-0.404968
-0.300903
-0.0994873
0.0631714
0.222473
0.358582
0.418396
0.317993
0.083313
-0.0860596
-0.227966
-0.361633
-0.393066
-0.376892
-0.233154
-0.116272
-0.0442505
-0.0146484
-0.06073
-0.0546265
-0.0213623
-0.0860596
-0.174255
-0.148315
-0.0469971
0.03479
0.123291
0.24231
0.295715
0.400085
0.519714
0.498352
0.307312
0.0500488
-0.162964
-0.329285
-0.349426
-0.261841
-0.182495
-0.150146
-0.127258
-0.0991821
-0.107727
-0.121155
-0.133667
-0.115967
-0.121765
-0.173035
-0.152588
-0.0930786
-0.0100708
0.039978
0.114441
0.151978
0.0784302
0.0180054
0.0848389
0.149231
0.19043
0.236511
0.244751
0.193787
0.125427
0.0628662
0.0958252
0.19165
0.192261
0.102539
0.0863647
0.0167847
-0.0253296
-0.0674438
-0.0415039
0.0125122
-0.0436401
-0.188599
-0.270691
-0.257874
-0.199585
-0.134277
-0.0402832
0.136108
0.231628
0.209045
0.168152
0.055542
-0.0534058
-0.117798
-0.122986
-0.0515747
0.0198364
0.0662231
0.0411987
-0.0427246
-0.13031
-0.0973511
-0.0521851
0.00579834
0.167542
0.262146
0.224304
0.111694
-0.0222778
-0.172729
-0.349426
-0.38208
-0.296021
-0.139771
-0.0177002
0.0418091
0.0570679
0.118713
0.209656
0.343018
0.376282
0.3125
0.166626
0.062561
-0.0305176
-0.0845337
-0.124817
-0.21759
-0.176086
-0.119934
-0.0701904
0.00335693
-0.0241089
-0.103455
-0.200806
-0.258789
-0.291443
-0.252075
-0.185547
-0.1474
0.0204468
0.119019
0.0588989
-0.0326538
-0.108032
-0.107422
-0.0558472
-0.0125122
0.0436401
0.13031
0.203552
0.154724
0.0897217
0.0125122
-0.00640869
-0.00518799
0.0979614
0.2005
0.172729
0.0576782
-0.0601196
-0.119629
-0.110779
0.0296021
0.426025
0.594788
0.427246
0.133972
-0.153503
-0.389709
-0.437317
-0.400085
-0.300598
-0.197449
0.0317383
0.232849
0.219727
0.167847
0.11322
0.0463867
0.0186157
0.0152588
0.0598145
0.0619507
-0.0650024
-0.1474
-0.229797
-0.216064
-0.145874
0.010376
0.0314331
-0.00518799
0.0305176
0.0411987
-0.0137329
-0.0180054
-0.010376
0.0332642
0.0695801
0.0668335
0.085144
0.0762939
0.0411987
0.0344849
0.140991
0.250854
0.292053
0.259399
0.233765
0.18158
0.0558472
0.0109863
-0.0241089
-0.0442505
-0.00549316
0.0119019
-0.0527954
-0.149231
-0.206604
-0.19928
-0.18158
-0.160217
-0.125427
-0.0415039
0.0180054
0.0662231
0.0668335
0.0509644
0.0180054
-0.0299072
-0.101318
-0.227966
-0.359802
-0.439758
-0.371399
-0.0759888
0.254211
0.606384
0.883484
1.00372
0.922241
0.73822
0.473022
0.205994
-0.0582886
-0.228577
-0.239258
-0.279541
-0.392151
-0.381165
-0.246582
-0.174255
-0.14801
-0.143127
-0.212097
-0.274658
-0.246887
-0.177307
-0.0299072
0.119629
0.204773
0.257263
0.193176
-0.0708008
-0.216675
-0.166321
-0.0979614
-0.0839233
-0.0671387
-0.0427246
-0.0964355
-0.126343
-0.0244141
0.0674438
0.0762939
0.0253296
-0.0354004
-0.0811768
-0.0619507
-0.0247192
0.0674438
0.168762
0.189514
0.172729
0.188599
0.208435
0.149231
0.0234985
-0.0314331
-0.0985718
-0.112305
-0.0769043
-0.072937
-0.107727
-0.0653076
0.017395
0.0814819
0.140686
0.180664
0.202026
0.19104
0.153503
0.154724
0.222473
0.210571
0.120239
0.00152588
-0.101318
-0.154114
-0.149536
-0.0631714
0.0125122
-0.020752
-0.0598145
-0.0463867
-0.00549316
-0.0332642
-0.032959
-0.0317383
-0.0912476
-0.138855
-0.176392
-0.13855
-0.0204468
0.0634766
-0.0088501
-0.1297
-0.0759888
0.0753784
0.0698853
-0.0405884
-0.10498
-0.141602
-0.125427
-0.0201416
0.102234
0.159607
0.12207
0.0198364
-0.0558472
-0.124512
-0.323486
-0.423584
-0.355835
-0.135193
0.0656128
0.153503
0.263062
0.207825
0.121765
0.0604248
-0.0469971
0.00152588
0.0994873
0.0827026
0.0485229
0.0515747
0.130615
0.111084
0.00488281
-0.0558472
-0.0341797
-0.0195312
0.0149536
0.0631714
0.106506
0.118408
0.116577
0.163574
0.19165
0.218811
0.271912
0.278015
0.195007
0.0912476
-0.0146484
-0.0881958
-0.118408
-0.139465
-0.192261
-0.19928
-0.207214
-0.282288
-0.327148
-0.262756
-0.158386
-0.114746
-0.12146
-0.104065
-0.0375366
0.0744629
0.244141
0.362854
0.448303
0.432434
0.270691
0.0366211
-0.250244
-0.448914
-0.543823
-0.555725
-0.484924
-0.288696
-0.0799561
0.155945
0.291443
0.266113
0.208435
0.126038
0.0930786
0.0256348
-0.0396729
0.0302124
0.0894165
0.0878906
0.0332642
-0.072937
-0.0805664
0.00366211
0.0546265
0.0915527
0.143127
0.119629
0.0537109
-0.00366211
-0.0997925
-0.181885
-0.10498
-0.0494385
-0.0262451
0.0463867
0.243835
0.393677
0.294189
0.213623
0.108032
-0.0253296
-0.0396729
-0.0344849
-0.0753784
-0.0930786
-0.143127
-0.303955
-0.461121
-0.52002
-0.516663
-0.37384
-0.0845337
0.205078
0.437927
0.500488
0.545349
0.562134
0.449524
0.306702
0.0912476
-0.219116
-0.280457
-0.218811
-0.0817871
-0.0357056
0
-0.0497437
-0.125122
-0.191956
-0.218201
-0.218506
-0.163574
-0.0506592
0.00518799
-0.0296021
-0.0302124
0.022583
0.0454712
0.0311279
0.0357056
0.038147
0.0119019
-0.0308228
-0.0778198
-0.113831
-0.116882
-0.122375
-0.122375
-0.131226
-0.221558
-0.31189
-0.260925
-0.198059
-0.178833
-0.1474
0.0106812
0.153809
0.283508
0.304871
0.296631
0.309753
0.338135
0.32959
0.224915
0.0814819
0.0991821
0.154419
0.125122
0.093689
0.0582886
0.0247192
0.0378418
0.0708008
0.0283813
-0.110168
-0.325012
-0.466003
-0.314026
-0.0881958
0.0335693
0.0314331
0.0454712
0.0601196
0.0454712
-0.0152588
-0.0756836
-0.103149
-0.0973511
-0.0839233
-0.0704956
-0.045166
-0.0527954
-0.0350952
0.0326538
0.208435
0.423584
0.530701
0.365295
0.139465
-0.00762939
-0.0924683
-0.105896
-0.0900269
-0.103455
-0.169067
-0.203552
-0.207825
-0.270996
-0.300903
-0.256042
-0.244751
-0.16449
-0.0344849
0.0790405
0.1297
0.132141
0.0982666
0.012207
-0.105286
-0.139771
-0.116882
-0.0830078
-0.00946045
0.124512
0.221252
0.169373
0.0827026
0.0485229
0.0479126
0.0463867
-0.0219727
-0.109253
-0.137939
-0.0961304
-0.0759888
-0.119934
-0.140686
-0.0738525
-0.0256348
0.0140381
0
0.0500488
0.212708
0.331116
0.362244
0.349731
0.269775
0.144043
0.0552368
-0.0161743
-0.0704956
-0.062561
-0.0271606
0.00213623
0.0274658
0.10376
0.11322
0.0875854
0.0759888
0.0744629
0.116577
0.19928
0.27832
0.26825
0.163574
-0.0338745
-0.136414
-0.131836
-0.153503
-0.214844
-0.218506
-0.184937
-0.168762
-0.205688
-0.215149
-0.188599
-0.0891113
-0.017395
0.0262451
0.0778198
0.0213623
0.0317383
0.180969
0.332947
0.306396
0.098877
-0.1651
-0.418396
-0.50354
-0.310669
-0.055542
0.113831
0.19989
0.256042
0.145569
0.0973511
0.126343
0.0765991
0.0354004
0.186768
0.37323
0.423584
0.284729
0.0613403
-0.0500488
-0.162354
-0.196838
-0.203552
-0.239258
-0.24231
-0.19165
-0.187988
-0.181885
-0.176086
-0.148315
-0.114746
-0.119324
-0.126953
-0.120544
-0.10376
-0.0650024
-0.0128174
0.0827026
0.195618
0.26001
0.27771
0.2005
0.0683594
-0.00152588
-0.0427246
-0.0646973
-0.0772095
-0.0805664
-0.130615
-0.17395
-0.162354
-0.175171
-0.124817
-0.0192261
0.0665283
0.175171
0.244446
0.172424
0.0448608
-0.0662231
-0.129089
-0.197449
-0.213318
-0.169678
0.0772095
0.306091
0.412598
0.360107
0.23468
0.0765991
-0.110474
-0.238647
-0.238647
-0.128479
0.19989
0.456238
0.570984
0.589294
0.527039
0.39093
0.314636
0.182495
-0.0247192
-0.283508
-0.440979
-0.481567
-0.45105
-0.371704
-0.319519
-0.264282
-0.160828
0.0112915
0.100708
0.107727
0.170593
0.176697
0.0982666
-0.115662
-0.252686
-0.206604
-0.195618
-0.1651
-0.123596
-0.00488281
0.0448608
-0.0234985
-0.0485229
0.00823975
0.108337
0.169678
0.162964
0.102539
-0.00854492
-0.0918579
-0.10498
-0.115662
-0.0979614
-0.0360107
0.0335693
0.0918579
0.130005
0.109253
0.0686646
0.105591
0.0576782
-0.0250244
-0.0650024
-0.104675
-0.181885
-0.220337
-0.128174
-0.0286865
0.0610352
0.193176
0.26886
0.22522
0.107117
0.0256348
0.0204468
0.0476074
0.055542
0.0466919
0.0167847
-0.0796509
-0.144958
-0.0793457
0.0595093
0.172729
0.259094
0.333252
0.425415
0.462341
0.4776
0.457764
0.409546
0.151367
-0.18219
-0.344849
-0.429382
-0.449829
-0.449524
-0.480042
-0.59967
-0.657043
-0.532227
-0.281982
-0.1297
0.00823975
0.151672
0.19043
0.222168
0.167542
0.0994873
0.0741577
0.0253296
0.00946045
0.0311279
0.0378418
0.0186157
-0.022583
-0.0839233
-0.172424
-0.227661
-0.208435
-0.191345
-0.104675
0.0671387
0.19928
0.295105
0.314331
0.265503
0.194702
0.108948
0.0424194
-0.0274658
-0.137634
-0.254211
-0.252686
-0.15686
-0.0396729
0.0424194
0.0857544
0.187683
0.302429
0.340271
0.371399
0.350952
0.256348
0.239258
0.243835
0.130005
0.125732
0.227966
0.358582
0.385437
0.308533
0.0564575
-0.198669
-0.329895
-0.278015
-0.209045
-0.21759
-0.238037
-0.255127
-0.254211
-0.223389
-0.127258
-0.0177002
-0.00640869
-0.126648
-0.321045
-0.389099
-0.415344
-0.395813
-0.29541
-0.141296
-0.0357056
-0.032959
-0.0476074
-0.085144
-0.113831
-0.137939
-0.0976562
-0.105286
-0.0927734
-0.0485229
0.0946045
0.133362
0.0448608
-0.101318
-0.138245
-0.0674438
-0.00396729
0.0979614
0.233765
0.292664
0.283508
0.247803
0.267944
0.310059
0.367737
0.400085
0.297241
0.197144
0.106201
-0.00610352
-0.0787354
-0.159302
-0.232849
-0.230713
-0.232239
-0.218201
-0.156555
-0.102234
-0.0506592
-0.0500488
-0.0473022
-0.045166
-0.0314331
-0.0479126
-0.0717163
-0.0320435
0.0897217
0.184021
0.205078
0.158386
0.112915
0.0509644
-0.0244141
-0.0881958
-0.158997
-0.213013
-0.227966
-0.167847
-0.0906372
0.0308228
0.0790405
0.0863647
0.12207
0.0918579
0.0466919
0.0115967
-0.0460815
-0.0747681
0.017395
0.0857544
0.0683594
0.067749
0.117188
0.162964
0.126648
0.108337
0.131226
0.144348
0.163269
0.10498
-0.0918579
-0.245667
-0.267334
-0.125122
0.101929
0.328979
0.557556
0.435486
0.248413
0.195312
0.19928
0.162659
0.151367
0.178833
0.148926
0.062561
0.10437
0.269775
0.253601
0.0552368
-0.18219
-0.253601
-0.316772
-0.39032
-0.437012
-0.40741
-0.331421
-0.235291
-0.219727
-0.171814
-0.0869751
-0.0198364
0.00427246
-0.0653076
-0.136414
-0.0979614
-0.0491333
-0.0534058
-0.0689697
-0.0875854
-0.0994873
-0.132446
-0.185852
-0.137024
-0.0674438
0.0344849
0.203552
0.383606
0.371704
0.262146
0.179749
0.119324
0.0222778
-0.0515747
-0.039978
-0.0415039
-0.108948
-0.164795
-0.198975
-0.135803
-0.0628662
0.0390625
0.12207
0.168152
0.188293
0.214233
0.198364
0.0970459
0.0271606
-0.0292969
-0.0628662
-0.0750732
-0.0662231
-0.0808716
-0.0683594
0.00335693
0.0628662
0.0784302
0.055542
0.0213623
-0.0473022
-0.137024
-0.190735
-0.144653
-0.106506
-0.156555
-0.188599
-0.159607
-0.0390625
0.0558472
0.16571
0.358276
0.401306
0.319519
0.211487
0.0588989
-0.0579834
-0.0341797
0.0408936
0.0622559
0.0372314
-0.0201416
-0.0747681
-0.0875854
-0.0570679
-0.0341797
-0.0726318
-0.078125
-0.0180054
0.00915527
-0.0524902
-0.0256348
0.158386
0.361023
0.435791
0.411072
0.317383
0.144348
-0.0656128
-0.228271
-0.274048
-0.284729
-0.298462
-0.261841
-0.164795
-0.0473022
0.0213623
0.0213623
0.012207
-0.0115967
-0.00396729
0.0198364
0.0265503
0.0628662
0.0973511
0.0921631
-0.038147
-0.176392
-0.248718
-0.255127
-0.216675
-0.129395
-0.0326538
0.072937
0.0765991
0.0570679
0.122375
0.166321
0.177002
0.158081
0.143738
0.177917
0.110779
0.0143433
-0.0686646
-0.145264
-0.200806
-0.187378
-0.0784302
0.0964355
0.159912
0.167236
0.132446
0.0802612
0.0372314
0.00152588
0.0180054
0.0363159
0.0894165
0.0915527
0.0787354
0.0747681
0.0964355
0.14801
0.16571
0.0698853
-0.0558472
-0.156555
-0.227966
-0.167542
-0.0543213
-0.0341797
-0.0125122
-0.0201416
-0.0772095
-0.111389
-0.119934
-0.0802612
-0.0244141
-0.0131226
0.0112915
0.0125122
-0.0485229
-0.0909424
-0.0961304
-0.127563
-0.1651
-0.159912
-0.126648
-0.0317383
0.100403
0.206299
0.213623
0.26001
0.33905
0.386963
0.426025
0.460815
0.379944
0.250854
0.0430298
-0.0891113
-0.154114
-0.149536
-0.139771
-0.0830078
-0.0338745
0.00488281
0.00793457
-0.072937
-0.167542
-0.223999
-0.194702
-0.108948
0.00274658
-0.0552368
-0.127869
-0.151062
-0.151062
-0.174866
-0.107422
0.00579834
0.105286
0.125732
0.0726318
0.0567627
0.0900269
0.0430298
0.00976562
0.0360107
0.0262451
-0.071106
-0.103149
-0.0396729
-0.0552368
-0.119019
-0.137329
-0.127258
-0.00518799
0.141296
0.184326
0.170898
0.171204
0.133667
0.0732422
0.0552368
0.0427246
0.0473022
0.0546265
0.0701904
0.127869
0.0881958
0.00762939
-0.0424194
-0.121155
-0.191956
-0.201111
-0.19104
-0.158691
-0.062561
0.0415039
0.128174
0.161133
0.105591
0.0531006
0.0735474
0.0939941
0.0939941
0.09552
0.158997
0.184937
0.170898
0.105896
0.0698853
0.0546265
-0.119019
-0.271301
-0.3479
-0.442505
-0.481262
-0.375977
-0.242004
-0.0350952
0.166321
0.243835
0.188293
0.0790405
0.0613403
0.138245
0.210876
0.228271
0.188599
0.106506
0.0387573
-0.0344849
-0.154419
-0.274048
-0.285034
-0.244141
-0.119629
0.0134277
0.195618
0.368042
0.40863
0.386658
0.308228
0.208435
0.194397
0.200195
0.178833
0.160828
0.148926
0.0558472
-0.0149536
0.012207
0.13855
0.107422
-0.0466919
-0.161133
-0.243225
-0.357056
-0.432434
-0.45929
-0.41687
-0.372009
-0.323792
-0.232544
-0.14801
-0.038147
0.0540161
0.0863647
0.0564575
-0.00793457
0.0222778
0.020752
0.0186157
0.0973511
0.117493
0.00671387
-0.0518799
0.0296021
0.226135
0.367432
0.355835
0.301208
0.249939
0.175476
0.100403
-0.00762939
-0.038147
-0.0967407
-0.130005
-0.100708
-0.0518799
-0.0952148
-0.188599
-0.267029
-0.308228
-0.280762
-0.204773
-0.0473022
0.0619507
0.090332
0.0308228
-0.0601196
-0.107727
-0.0985718
-0.0512695
0.0115967
0.0369263
0
0.0250244
0.0717163
0.0946045
0.078125
0.124207
0.194397
0.284729
0.339355
0.378723
0.392761
0.351562
0.253601
0.113525
0.0460815
0.0210571
0.0344849
0.00366211
-0.0692749
-0.104675
-0.0747681
-0.0448608
0.00915527
0.0448608
0.0643921
0.0570679
-0.0518799
-0.0350952
0.0784302
0.242004
0.400085
0.472107
0.231323
-0.0631714
-0.248413
-0.399475
-0.513916
-0.48645
-0.39917
-0.293579
-0.194397
-0.149231
-0.168457
-0.226746
-0.330811
-0.3479
-0.331116
-0.328369
-0.259705
-0.093689
0.0827026
0.222473
0.281067
0.375671
0.325623
0.222168
0.11322
0.0363159
0.0271606
0.0558472
0.0332642
0.0314331
0.0756836
0.195618
0.308838
0.369873
0.407104
0.270996
0.0637817
-0.158081
-0.288391
-0.342102
-0.388184
-0.38147
-0.297241
-0.138245
-0.0357056
0.0439453
0.0747681
0.119934
0.218811
0.216064
0.110168
-0.00915527
-0.0942993
-0.168762
-0.210266
-0.154419
-0.12085
-0.114136
-0.0787354
-0.00793457
0.0973511
0.0970459
0.155029
0.208435
0.26123
0.29541
0.308533
0.267334
0.210876
0.175476
0.0738525
-0.0326538
-0.072937
-0.0387573
-0.0201416
-0.0100708
-0.00488281
-0.0491333
-0.123901
-0.148926
-0.169983
-0.125427
-0.124512
-0.00610352
0.0335693
-0.0158691
-0.0308228
0.00732422
-0.0170898
-0.119934
-0.206604
-0.0631714
0.164795
0.365601
0.599365
0.604858
0.346069
0.109863
0.039978
-0.0518799
-0.0848389
-0.177612
-0.368347
-0.500488
-0.574341
-0.497742
-0.324402
-0.0549316
0.150452
0.270691
0.284729
0.235291
0.227966
0.217896
0.173035
0.0802612
-0.0341797
-0.150452
-0.209961
-0.281067
-0.338135
-0.361938
-0.355225
-0.287781
-0.185852
0.032959
0.304871
0.451355
0.430298
0.358582
0.274353
0.175476
0.0674438
-0.0445557
-0.0296021
0.0363159
0.183411
0.259094
0.162048
0.0189209
-0.0125122
-0.043335
-0.131226
-0.217896
-0.231628
-0.155334
-0.0469971
0.0631714
0.176086
0.226746
0.187988
0.0506592
-0.0820923
-0.152588
-0.214233
-0.258789
-0.234375
-0.155029
-0.0750732
0.0405884
0.154114
0.20752
0.248718
0.231628
0.173645
0.177612
0.136414
0.0280762
-0.0939941
-0.206604
-0.230713
-0.221252
-0.234985
-0.213013
-0.154419
-0.0582886
0.0540161
0.124817
0.124817
0.114746
0.118103
0.196533
0.192566
0.119934
0.114136
0.0860596
-0.00732422
0.0134277
0.0128174
-0.0131226
-0.0662231
-0.0753784
-0.0100708
0.0186157
0.0125122
0.0369263
0.0241089
-0.06073
-0.213013
-0.174561
-0.0305176
0.0231934
0.0350952
0.0421143
0.133972
0.179138
0.202637
0.161743
0.155029
0.157776
0.138855
0.111389
0.0534058
-0.0445557
-0.142822
-0.168457
-0.162048
-0.144043
-0.109253
-0.0582886
-0.0186157
-0.00610352
-0.0247192
-0.0488281
-0.0976562
-0.116272
-0.0598145
-0.027771
-0.0604248
-0.111389
-0.161743
-0.14679
-0.0613403
0.00457764
0.000915527
0.0466919
0.133972
0.174866
0.116577
0.0408936
-0.012207
-0.0350952
-0.012207
0.00549316
-0.0463867
0.00793457
0.0811768
0.135803
0.144043
0.190735
0.110779
0.0109863
-0.0332642
-0.0976562
-0.106812
-0.139771
-0.224915
-0.17395
0.00366211
0.157471
0.214844
0.144958
0.0012207
-0.0820923
-0.0384521
0.00427246
-0.0491333
-0.0167847
0.00762939
-0.00701904
0.00823975
0.0970459
0.224304
0.328064
0.25238
0.105591
-0.0564575
-0.294495
-0.348511
-0.213623
-0.0793457
-0.0134277
0.0164795
0.0326538
0.0534058
-0.0088501
-0.105896
-0.137939
-0.129089
-0.0662231
0.078125
0.178833
0.23468
0.274658
0.288391
0.257568
0.13092
-0.00976562
-0.0296021
0.0109863
0.0540161
0.0280762
-0.0204468
-0.085144
-0.130615
-0.13031
-0.0979614
-0.0479126
-0.0314331
-0.0274658
-0.0558472
-0.0634766
0.00701904
0.16449
0.318298
0.401917
0.462646
0.441589
0.306702
0.124512
-0.0222778
-0.045166
-0.162048
-0.258484
-0.279541
-0.220947
-0.250244
-0.320435
-0.314941
-0.24353
-0.172729
-0.0616455
0.0601196
-0.0198364
-0.173645
-0.238037
-0.220032
-0.141602
-0.108337
-0.102844
-0.0598145
0.0372314
0.185242
0.26886
0.256042
0.151367
0.155945
0.128174
0.0637817
0.00854492
-0.0354004
-0.0671387
-0.0827026
-0.0857544
-0.0408936
-0.00305176
0.0418091
0.0878906
0.173645
0.157166
0.0759888
0.00946045
-0.00823975
-0.00762939
-0.0180054
0.0390625
0.21698
0.40802
0.502319
0.524292
0.461426
0.316467
0.120239
-0.0299072
-0.0842285
-0.118103
-0.145264
-0.214539
-0.270996
-0.314941
-0.348206
-0.379333
-0.395813
-0.393982
-0.33905
-0.27832
-0.236511
-0.20752
-0.134583
-0.0210571
0.128784
0.311584
0.390625
0.446472
0.498657
0.475769
0.380554
0.22583
0.0320435
-0.0665283
-0.110168
-0.124817
-0.114136
-0.0875854
-0.0720215
-0.0598145
-0.000915527
0.101318
0.184937
0.145569
0.0881958
-0.0250244
-0.161133
-0.212097
-0.138245
-0.0424194
0.0289917
0.175171
0.247498
0.205383
0.169067
0.106201
-0.0134277
-0.1297
-0.183411
-0.158081
-0.159302
-0.109558
-0.0610352
-0.020752
0.0088501
0.00274658
-0.0518799
-0.111084
-0.135803
-0.154114
-0.169373
-0.202942
-0.139465
-0.0692749
-0.0549316
0.00640869
0.020752
0.0314331
0.0915527
0.239258
0.40741
0.502014
0.43335
0.30365
0.241394
0.178223
0.177917
0.10437
-0.0985718
-0.178528
-0.160217
-0.125732
-0.0613403
-0.0720215
-0.119629
-0.173035
-0.201721
-0.170593
-0.11322
-0.0390625
0.0460815
0.116577
0.158997
0.163879
0.144043
0.141907
0.0750732
-0.0247192
-0.0564575
0.0299072
0.0112915
-0.085144
-0.139465
-0.0524902
-0.0201416
-0.045166
-0.00701904
0.0201416
0.0320435
0.0338745
0.0106812
-0.0634766
-0.118408
-0.211182
-0.213928
-0.221252
-0.237732
-0.19165
-0.0271606
0.21637
0.405884
0.407104
0.369873
0.327148
0.258789
0.223389
0.168457
0.0848389
0.00488281
-0.0881958
-0.168762
-0.221252
-0.173645
-0.110168
0.0299072
0.167847
0.229187
0.234375
0.168152
0.0515747
-0.0631714
-0.100098
-0.132751
-0.166626
-0.158997
-0.0982666
-0.0616455
-0.0457764
-0.0482178
-0.0765991
-0.0561523
0.0387573
0.154724
0.278625
0.357971
0.341187
0.116882
-0.0881958
-0.150452
-0.1297
-0.039978
0.0616455
-0.0375366
-0.194397
-0.255737
-0.265198
-0.259705
-0.250244
-0.206299
-0.110474
-0.0418091
-0.0869751
-0.131226
-0.0827026
0.0149536
0.0839233
0.09552
0.0311279
-0.0469971
-0.108948
-0.10498
-0.0506592
0.0375366
0.171204
0.190735
0.118103
0.0280762
0.00610352
0.0857544
0.256653
0.458679
0.544128
0.537415
0.383606
0.0933838
-0.114746
-0.12085
-0.0439453
-0.06073
-0.185242
-0.35553
-0.455017
-0.401306
-0.315857
-0.264587
-0.21637
-0.184326
-0.132141
-0.0753784
-0.0344849
-0.027771
-0.0598145
-0.0961304
-0.0686646
-0.032959
-0.0119019
0.00854492
0.010376
0.0375366
0.0692749
0.0283813
-0.0186157
0.0177002
0.101929
0.1828
0.285339
0.324097
0.346069
0.375366
0.275269
0.0863647
-0.0900269
-0.199585
-0.220337
-0.176392
-0.172729
-0.159607
-0.133972
-0.103455
-0.0839233
-0.0598145
0
0.0805664
0.136108
0.155334
0.148621
0.126648
0.0949097
0.115051
0.187988
0.237732
0.223083
0.178528
0.186157
0.184021
0.142212
-0.0683594
-0.212097
-0.218506
-0.204468
-0.249939
-0.328064
-0.293274
-0.204163
-0.115967
-0.0830078
-0.0357056
0.0311279
0.0268555
-0.0671387
-0.0772095
-0.10498
-0.276489
-0.398865
-0.406494
-0.255432
-0.06073
0.0180054
0.0469971
0.0497437
0.0643921
0.050354
0.0393677
0.0393677
0.0643921
0.083313
0.115967
0.154114
0.242615
0.342712
0.369568
0.332947
0.302429
0.32135
0.285339
0.144043
0.0363159
0.0558472
0.0982666
0.0460815
-0.0473022
-0.1297
-0.149231
-0.152588
-0.198364
-0.220337
-0.224915
-0.20752
-0.205383
-0.160217
-0.0802612
-0.0613403
-0.0738525
-0.0979614
-0.139465
-0.186768
-0.200195
-0.160217
-0.0445557
-0.0656128
-0.0814819
0.038147
0.155029
0.217896
0.138855
0.0521851
0
0
0.0411987
0.101624
0.198669
0.300598
0.331116
0.280151
0.177917
0.0595093
-0.0296021
-0.0827026
-0.127869
-0.18158
-0.139465
-0.0604248
0.0579834
0.0854492
0.0521851
0.0527954
0.114441
0.206909
0.276794
0.2771
0.220032
0.0857544
-0.0552368
-0.142212
-0.21759
-0.235901
-0.201721
-0.154114
-0.153809
-0.147705
-0.128174
-0.195007
-0.211792
-0.188293
-0.126648
-0.0479126
0.0732422
0.132751
0.14801
0.196533
0.120544
-0.0689697
-0.28656
-0.360413
-0.309143
-0.201111
-0.0469971
0.0637817
0.152588
0.131226
0.0845337
0.0396729
0.043335
0.118408
0.0997925
0.0720215
-0.0170898
-0.124207
-0.160522
-0.15564
-0.0881958
0.0494385
0.1651
0.177002
0.155334
0.119934
0.0485229
-0.0088501
-0.0698853
-0.142212
-0.0918579
-0.0256348
0.0576782
0.148621
0.256653
0.275879
0.272522
0.218811
0.0961304
-0.0161743
-0.0909424
-0.131226
-0.122375
-0.100403
-0.0631714
-0.0424194
-0.0448608
-0.102234
-0.158386
-0.194702
-0.225525
-0.243225
-0.243225
-0.156555
-0.0787354
0.0418091
0.184326
0.249939
0.204773
0.163269
0.151672
0.135193
0.203552
0.261536
0.268555
0.263367
