-0.177917
-0.175476
-0.218506
-0.216675
-0.15564
-0.0680542
0.0137329
0.0631714
0.0997925
0.0949097
0.0115967
-0.0527954
-0.0720215
-0.0772095
-0.0756836
-0.09552
-0.0643921
-0.0283813
0.0186157
0.0473022
0.0430298
0.0393677
0.0650024
0.0231934
-0.0454712
-0.0894165
-0.101624
-0.100708
-0.114136
-0.0582886
0.00366211
0.00274658
-0.0244141
-0.00640869
0.0747681
0.117798
0.137024
0.160522
0.135803
0.0900269
0.017395
0.0479126
0.0692749
-0.038147
-0.142212
-0.093689
0.0250244
0.0561523
0.0698853
0.0949097
0.0497437
-0.0198364
-0.0320435
-0.017395
-0.0128174
0.0430298
0.153809
0.268555
0.297852
0.273438
0.191345
0.0604248
0.00335693
-0.0344849
-0.0686646
-0.0949097
-0.107117
-0.102844
-0.117493
-0.147705
-0.183411
-0.1828
-0.128479
-0.0796509
-0.0308228
0.00366211
0.020752
0.0717163
0.110168
0.0430298
-0.050354
-0.0863647
-0.119324
-0.093689
-0.0158691
0.0772095
0.0982666
0.122681
0.102844
-0.00152588
-0.0814819
-0.113525
-0.138245
-0.155945
-0.145569
-0.117798
-0.0692749
-0.0570679
-0.0531006
-0.0265503
0.057373
0.161133
0.163879
0.142517
0.149841
0.13855
0.0534058
-0.0259399
-0.0857544
-0.105896
-0.0723267
-0.0585938
-0.0543213
-0.0445557
-0.0692749
-0.0424194
0.0222778
0.0692749
0.0582886
0.0289917
0.0167847
0.0238037
-0.0119019
-0.0585938
-0.0939941
-0.104675
-0.100403
-0.0759888
-0.0268555
0.0192261
0.0466919
0.0982666
0.212708
0.249634
0.230408
0.173035
0.136719
0.108643
0.0344849
-0.0320435
-0.0509644
-0.144958
-0.258789
-0.285339
-0.204163
-0.0622559
0.0137329
-0.0393677
-0.115356
-0.188293
-0.237732
-0.25238
-0.212708
-0.156555
-0.0778198
0.0784302
0.204773
0.197449
0.150757
0.0952148
0.0524902
0.0439453
0.0427246
0.0357056
0.0317383
0.0439453
0.0430298
0.0344849
0.0595093
0.088501
0.0579834
0.0454712
0.0506592
0.0460815
0.0341797
0.0280762
-0.0100708
0.000305176
0.0622559
0.0534058
-0.0167847
-0.0741577
-0.119629
-0.151978
-0.137634
-0.0869751
-0.11322
-0.186462
-0.194092
-0.105286
-0.0241089
0.00549316
0.0714111
0.149231
0.10437
0.0256348
-0.010376
-0.0390625
-0.0411987
0.0100708
0.057373
0.0717163
-0.0231934
-0.142517
-0.139771
-0.0970459
-0.0692749
-0.0106812
0.0354004
0.0274658
-0.00579834
-0.0100708
0.027771
0.124512
0.116882
0.0619507
0.071106
0.072937
0.0088501
-0.0744629
-0.109558
-0.167847
-0.197754
-0.176086
-0.132751
-0.124512
-0.0634766
0.0143433
0.0204468
-0.039978
-0.0592041
-0.0579834
-0.10376
-0.101929
-0.104675
-0.137939
-0.136719
-0.0854492
-0.0527954
-0.00305176
0.0421143
0.100708
0.13916
0.144653
0.185242
0.169373
0.139465
0.138855
0.19104
0.243835
0.233154
0.144348
0.055542
-0.039978
-0.0299072
0.0634766
0.118713
0.0671387
-0.0646973
-0.140076
-0.164185
-0.170593
-0.206604
-0.303345
-0.289307
-0.186157
-0.106812
-0.0357056
0.0970459
0.157166
0.0619507
-0.0491333
-0.105896
-0.0592041
0.0137329
0.0778198
0.108337
0.0448608
-0.0393677
-0.112
-0.131836
-0.100403
-0.0292969
0.0512695
0.0961304
0.150757
0.169983
0.155945
0.161438
0.135498
0.0311279
-0.0704956
-0.110779
-0.111694
-0.128479
-0.123596
-0.0598145
-0.00305176
-0.0588989
-0.111389
-0.0866699
-0.0973511
-0.119934
-0.0753784
-0.0460815
-0.0430298
0.0354004
0.126343
0.177002
0.216675
0.293884
0.324097
0.29541
0.236816
0.179749
0.141602
0.109253
0.0848389
0.0708008
0.0759888
0.118713
0.164795
0.162659
0.0820923
0.032959
-0.0302124
-0.0964355
-0.0640869
0.0476074
0.133057
0.151367
0.149841
0.114441
-0.00762939
-0.174866
-0.209351
-0.162354
-0.143433
-0.107422
-0.0790405
-0.0967407
-0.108337
-0.114136
-0.153198
-0.183411
-0.183716
-0.12207
-0.0265503
0.0720215
0.178528
0.23407
0.17395
0.0946045
0.020752
-0.0323486
-0.0500488
-0.0680542
-0.0741577
-0.0564575
-0.0198364
-0.0280762
-0.0576782
-0.0296021
-0.0384521
-0.0515747
-0.0360107
-0.00701904
0.00854492
0.0289917
-0.0112915
-0.12207
-0.133057
-0.0802612
-0.0100708
0.0109863
0.0283813
0.050354
0.0512695
0.0180054
-0.00549316
-0.00610352
-0.0402832
-0.105286
-0.133667
-0.113525
-0.0686646
0.00488281
0.101318
0.176392
0.187073
0.165405
0.0976562
0.0170898
-0.00732422
0.0280762
0.0845337
0.0689697
0.0704956
0.043335
-0.0012207
0.0375366
0.137024
0.24231
0.304871
0.376587
0.367737
0.3125
0.231934
0.164185
0.0549316
-0.0491333
-0.0970459
-0.125732
-0.138245
-0.139771
-0.154419
-0.146484
-0.115662
-0.0271606
0.0323486
0.0653076
0.0622559
0.0311279
-0.0366211
-0.131531
-0.1474
-0.0875854
-0.0323486
0.000915527
0.0222778
0.0619507
0.0790405
0.0827026
0.0949097
0.06073
0.00396729
-0.0494385
-0.0109863
0.0305176
0.0363159
0.0549316
0.0894165
0.0634766
-0.0314331
-0.124207
-0.20813
-0.291138
-0.342407
-0.324097
-0.216675
-0.149231
-0.144043
-0.127563
-0.067749
-0.0354004
-0.00335693
0.0531006
0.0628662
0.0265503
-0.0088501
0.000915527
0.0259399
0.0875854
0.197144
0.249329
0.271912
0.255127
0.206299
0.174255
0.200806
0.269775
0.295715
0.264587
0.208435
0.138245
-0.00305176
-0.131531
-0.192566
-0.13092
-0.0189209
0.0891113
0.133667
0.0973511
-0.0265503
-0.137024
-0.19104
-0.170898
-0.105286
-0.020752
0.0817871
0.161438
0.159302
0.0765991
-0.00610352
-0.108337
-0.181274
-0.209351
-0.134277
-0.0546265
0.0457764
0.170288
0.237732
0.21759
0.170898
0.14801
0.112
0.027771
-0.112
-0.195923
-0.16571
-0.163574
-0.158997
-0.157471
-0.133057
-0.141602
-0.13092
-0.0811768
0.0143433
0.130615
0.235596
0.246277
0.213318
0.149536
-0.00488281
-0.083313
-0.100403
-0.124817
-0.155029
-0.146179
-0.093689
-0.0372314
-0.027771
-0.0469971
-0.0802612
-0.0631714
0.0253296
0.0390625
-0.0134277
-0.050354
-0.0741577
-0.0918579
-0.0802612
0.0765991
0.2948
0.422058
0.467529
0.44281
0.28595
0.0662231
-0.0802612
-0.160522
-0.201721
-0.180664
-0.131226
0.00274658
0.143127
0.141602
0.0939941
0.0274658
-0.06073
-0.141907
-0.143433
-0.128174
-0.152893
-0.19043
-0.146484
-0.0531006
0.0357056
0.102234
0.144958
0.219421
0.279846
0.252686
0.18219
0.125427
0.0198364
-0.102844
-0.150452
-0.188293
-0.172424
-0.0979614
-0.0100708
0.0378418
0.0222778
0.00366211
-0.0262451
-0.0765991
-0.133972
-0.128784
-0.110168
-0.0686646
0.0164795
0.125732
0.175171
0.155029
0.145569
0.162354
0.187988
0.169373
0.117798
-0.00427246
-0.0881958
-0.10376
-0.107117
-0.118408
-0.122986
-0.156555
-0.17334
-0.156555
-0.113831
-0.0158691
0.0601196
0.110168
0.12207
0.0933838
0.09552
0.131226
0.176392
0.221252
0.204773
0.160828
0.0558472
-0.0387573
-0.210571
-0.307312
-0.230408
-0.0588989
0.06073
0.138855
0.142212
0.0946045
0.043335
0.0378418
0.0863647
0.155945
0.283813
0.317078
0.223389
0.0769043
-0.00457764
-0.0521851
-0.155334
-0.229187
-0.197144
-0.107727
-0.0344849
0.0238037
0.0436401
0.0177002
-0.00488281
-0.0305176
-0.0637817
-0.127258
-0.226135
-0.296326
-0.28595
-0.163879
0.00946045
0.12207
0.2005
0.1474
-0.00396729
-0.126038
-0.164185
-0.098877
0.0448608
0.146179
0.183411
0.116882
0.0158691
-0.0866699
-0.1297
-0.160522
-0.0360107
0.06073
0.0961304
0.0836182
0.0137329
-0.038147
-0.0881958
-0.108948
-0.0775146
0.0192261
0.152283
0.273132
0.340576
0.398865
0.328674
0.110168
-0.0680542
-0.101318
-0.0723267
-0.119019
-0.171814
-0.155334
-0.0915527
-0.0460815
0.0604248
0.176697
0.197754
0.126648
0.0500488
-0.00671387
-0.0793457
-0.13855
-0.133057
-0.122681
-0.136414
-0.152893
-0.116882
-0.108643
-0.105896
-0.0308228
0.0454712
0.065918
0.0717163
0.110474
0.153809
0.212708
0.212097
0.205078
0.114441
0.00946045
-0.111084
-0.116882
-0.137024
-0.0915527
-0.0454712
-0.0634766
-0.0534058
-0.0177002
0.0244141
0.0378418
0.0473022
0.0250244
-0.0439453
-0.0894165
-0.117493
-0.0793457
-0.0610352
-0.0726318
-0.0640869
-0.0198364
-0.00579834
-0.00610352
0.0204468
0.0384521
0.0302124
-0.0088501
-0.0500488
-0.0482178
0.00488281
0.119934
0.255127
0.360413
0.370789
0.315247
0.177917
-0.0387573
-0.169067
-0.209656
-0.231323
-0.215759
-0.168457
-0.105286
-0.055542
-0.0109863
0.00488281
0.0268555
-0.00762939
-0.0558472
-0.0265503
0.0198364
-0.0100708
-0.0241089
0.0247192
0.0390625
-0.020752
-0.00488281
0.0866699
0.150452
0.166931
0.169983
0.130005
0.0384521
-0.0585938
-0.13092
-0.135193
-0.113525
-0.154114
-0.223694
-0.151062
0.0158691
0.161438
0.306396
0.369263
0.308838
0.133667
-0.102539
-0.222778
-0.299072
-0.26886
-0.209045
-0.162048
-0.0836182
0.0790405
0.18219
0.246277
0.378418
0.415649
0.332947
0.235596
0.169678
0.11322
0.0268555
-0.120544
-0.22644
-0.291138
-0.255127
-0.190125
-0.123291
-0.0845337
-0.038147
-0.00579834
0.00183105
-0.0198364
-0.0500488
-0.0531006
-0.0598145
-0.0952148
-0.111084
-0.0265503
0.0552368
0.0805664
0.072937
0.0466919
0.0311279
0.017395
-0.0112915
-0.0372314
-0.0378418
-0.00946045
0.000915527
-0.0534058
-0.0698853
-0.0823975
-0.0708008
-0.0787354
-0.0601196
0.0180054
0.0588989
0.065918
0.050354
-0.0192261
-0.117188
-0.2005
-0.21637
-0.098877
0.00640869
0.0698853
0.101624
0.144958
0.211182
0.289917
0.336304
0.344238
0.292664
0.223999
0.229492
0.194397
0.0793457
0.00671387
-0.0335693
-0.104065
-0.140686
-0.139465
-0.113525
-0.065918
-0.0360107
-0.085144
-0.154419
-0.259399
-0.274963
-0.205688
-0.115967
0.0253296
0.0759888
0.0735474
0.0106812
-0.0146484
0.0180054
0.0531006
0.106506
0.125122
0.120544
0.0845337
-0.00610352
-0.0994873
-0.115967
-0.111084
-0.0698853
0.0509644
0.145874
0.155945
0.105896
0.0631714
0.020752
-0.0460815
-0.126343
-0.186768
-0.1651
-0.126038
-0.102234
-0.0772095
-0.0186157
0.039978
0.101929
0.237122
0.296021
0.162964
0.0192261
-0.0811768
-0.0964355
-0.0744629
-0.0463867
-0.0131226
0.0164795
0.133972
0.292053
0.388489
0.3479
0.183411
-0.00244141
-0.16571
-0.200195
-0.129089
-0.0881958
-0.0613403
-0.0411987
-0.0680542
-0.156555
-0.187378
-0.153809
-0.113525
-0.0927734
-0.0308228
-0.0323486
-0.0509644
-0.0497437
-0.0512695
-0.0354004
-0.0305176
-0.0396729
-0.0125122
0.0323486
0.0424194
0.0485229
0.0408936
0.0335693
0.0341797
-0.0192261
-0.103455
-0.187378
-0.201111
-0.153503
-0.0531006
0.102234
0.156555
0.12207
0.106506
0.114441
0.123596
0.140686
0.162048
0.119324
0.0765991
0.0524902
0.0338745
0.0195312
0.00793457
0.0164795
0.062561
0.0466919
-0.0427246
-0.0726318
0.0241089
0.0958252
0.0753784
0.0836182
0.12085
0.164795
0.214539
0.127563
0.00183105
-0.038147
-0.0704956
-0.186157
-0.308838
-0.301208
-0.160217
0.00213623
0.170898
0.266113
0.258789
0.23407
0.16449
0.0997925
0.0216675
0.0265503
0.0622559
0.0735474
0.00671387
-0.0393677
-0.108948
-0.10498
-0.101624
-0.0820923
-0.0109863
0.0604248
0.10376
0.0784302
0.0405884
0.0167847
0.015564
0.000305176
-0.0320435
0.00701904
0.0436401
0.0698853
0.105286
0.0756836
-0.0119019
-0.0201416
0.0234985
0.00610352
-0.065918
-0.123596
-0.142822
-0.118408
-0.0613403
-0.0411987
-0.0177002
-0.0241089
-0.0119019
0.0289917
0.0506592
0.0338745
0.00518799
-0.0189209
-0.020752
-0.0201416
-0.0512695
-0.0299072
0.0128174
0.100708
0.242615
0.436707
0.610657
0.651245
0.601196
0.41748
0.057373
-0.285339
-0.587769
-0.742493
-0.675354
-0.499878
-0.357361
-0.255432
-0.12085
0.0112915
0.0643921
0.0595093
0.0262451
-0.0506592
-0.0265503
0.00457764
0.00732422
-0.0296021
-0.0378418
-0.0146484
0.00732422
0.0314331
0.0411987
0.0350952
0.0204468
-0.0283813
-0.0738525
-0.0964355
-0.0933838
-0.0375366
0.0180054
0.0476074
0.0567627
0.0695801
0.0479126
0.03479
0.00335693
0.00640869
0.0289917
0.0421143
0.0485229
0.0244141
-0.103455
-0.220337
-0.265503
-0.229797
-0.194092
-0.13092
0.0369263
0.215454
0.293884
0.3125
0.308838
0.286255
0.166626
0.0817871
0.115662
0.159607
0.239258
0.272827
0.239868
0.188904
0.0881958
0.0396729
-0.0244141
-0.0683594
-0.0360107
0.00946045
0.0604248
0.102844
0.131531
0.122375
0.0912476
0.090332
0.0805664
0.0576782
0.0192261
-0.00976562
-0.0527954
-0.134888
-0.208435
-0.241394
-0.245361
-0.218506
-0.201111
-0.223694
-0.160217
-0.0778198
-0.0274658
-0.017395
-0.000610352
0.0268555
0.0375366
-0.0338745
-0.0704956
-0.0744629
-0.065918
-0.0482178
-0.0460815
-0.0753784
-0.0640869
-0.0436401
-0.0186157
-0.0485229
0.0012207
0.106201
0.144958
0.135498
0.0750732
0.0363159
-0.0186157
-0.0485229
-0.158997
-0.289612
-0.393982
-0.417175
-0.331116
-0.160828
0.0549316
0.196838
0.17395
0.112915
0.0973511
0.158081
0.196228
0.180969
0.195007
0.204773
0.123901
0.012207
-0.0256348
-0.00396729
0.022583
0.0653076
0.0183105
-0.0457764
-0.119934
-0.203247
-0.232544
-0.19165
-0.0997925
0.0469971
0.219116
0.270996
0.193176
0.108643
0.0402832
-0.00854492
-0.0363159
-0.0387573
-0.0241089
0.0134277
0.0415039
0.0778198
0.0939941
0.0408936
-0.072937
-0.160217
-0.17395
-0.152588
-0.0811768
-0.00396729
0.136414
0.289307
0.290222
0.192566
0.0863647
-0.00274658
-0.010376
0.0595093
0.0906372
0.0537109
-0.0595093
-0.102844
-0.0991821
-0.0387573
0.0204468
0.0582886
0.0698853
0.0759888
0.0564575
0.00335693
-0.0906372
-0.188293
-0.201111
-0.194092
-0.20752
-0.191345
-0.172119
-0.122986
-0.0338745
0.118103
0.262146
0.297241
0.279846
0.220947
0.151367
0.14679
0.11322
0.0192261
-0.0570679
-0.120544
-0.201416
-0.226746
-0.201721
-0.161133
-0.0842285
0.0112915
0.0460815
0.0344849
-0.00915527
-0.00579834
0.0161743
0.0561523
0.111389
0.179138
0.186768
0.166016
0.138855
0.140381
0.19104
0.223083
0.128784
0.0326538
-0.0460815
-0.0900269
-0.0357056
0.0164795
0.0869751
0.177612
0.184937
0.133667
0.0967407
0.0366211
-0.135193
-0.267029
-0.296631
-0.261841
-0.26825
-0.263977
-0.11261
-0.0198364
-0.038147
0.015564
0.137329
0.181885
0.124512
0.0164795
-0.0537109
-0.0872803
-0.144653
-0.10498
-0.0549316
-0.0372314
-0.017395
0.0134277
0.032959
0.0427246
0.0158691
0.0134277
-0.0137329
-0.0494385
-0.0436401
0.0271606
0.0454712
0.00335693
-0.0424194
-0.0888062
-0.138245
-0.0335693
0.106201
0.168457
0.167236
0.146179
0.137329
0.138245
0.0540161
-0.0344849
-0.0918579
-0.0588989
0.0506592
0.119629
0.112305
0.0857544
0.00915527
-0.0820923
-0.131531
-0.116882
-0.0473022
0.050354
0.142517
0.167847
0.168152
0.158691
0.0790405
-0.0341797
-0.138855
-0.152588
-0.098877
-0.0439453
-0.00854492
0.00213623
0.00610352
0.00823975
0.0234985
0.0576782
0.0509644
0.0680542
0.0756836
0.0820923
0.0775146
0.0656128
0.0222778
-0.0592041
-0.194397
-0.290527
-0.274048
-0.157166
-0.0918579
-0.0653076
-0.0350952
-0.00701904
0.027771
0.00457764
-0.0314331
-0.0427246
-0.0686646
-0.0994873
-0.0869751
-0.0418091
0.00793457
0.0216675
0.0238037
0.0863647
0.187378
0.285645
0.320129
0.238037
0.0946045
-0.0265503
-0.100098
-0.0930786
-0.0708008
-0.0784302
-0.0866699
-0.0939941
-0.111694
-0.072937
0.0289917
0.160217
0.231934
0.204773
0.154114
0.0994873
0.0332642
-0.00640869
0.00854492
0.0350952
0.0442505
0.0286865
0.0195312
-0.00396729
0.00579834
0.00518799
-0.0320435
-0.111694
-0.185547
-0.196838
-0.180359
-0.198975
-0.178528
-0.0320435
0.00701904
-0.067749
-0.101013
-0.0671387
-0.038147
-0.020752
-0.0125122
0.0790405
0.161438
0.166626
0.127563
0.0384521
-0.0177002
-0.0424194
-0.0167847
0.0360107
0.186462
0.315247
0.316162
0.275574
0.20752
0.0799561
-0.120544
-0.270386
-0.289001
-0.240784
-0.14801
-0.0552368
0.0317383
0.0473022
0
-0.0466919
-0.0469971
-0.0643921
-0.0894165
-0.0579834
-0.0588989
-0.083313
-0.10376
-0.0863647
-0.0698853
-0.0137329
0.126648
0.245972
0.316162
0.275269
0.1474
0.0427246
-0.0430298
-0.141296
-0.0906372
-0.0280762
0.00274658
-0.0119019
-0.0497437
-0.0637817
0.0167847
0.10437
0.153809
0.189209
0.161438
0.0912476
-0.0408936
-0.16449
-0.154419
-0.0457764
0.0177002
-0.0012207
-0.0250244
-0.0167847
0.0137329
0.0338745
-0.0479126
-0.144653
-0.192871
-0.136414
-0.0616455
-0.0149536
0.0473022
0.0756836
0.0772095
0.0646973
0.0848389
0.102234
0.071106
-0.0366211
-0.202332
-0.275574
-0.19928
-0.195007
-0.21698
-0.155334
-0.114746
-0.0994873
-0.0790405
-0.0991821
-0.123291
-0.0390625
0.0653076
0.140076
0.224304
0.279541
0.228271
0.119629
0.0137329
-0.0213623
-0.00701904
0.00823975
0.00549316
-0.022583
-0.0384521
-0.0286865
-0.00274658
-0.0253296
-0.0140381
-0.0158691
-0.0302124
-0.0186157
0.0531006
0.103455
0.116577
0.108337
0.0683594
0.0253296
0.0088501
0.0177002
0.0341797
0.0823975
0.118408
0.139771
0.108337
0.108032
0.10498
0.116882
0.134583
0.126038
0.126038
0.133972
0.088501
-0.0228882
-0.0610352
-0.0598145
-0.0408936
-0.00762939
-0.00274658
-0.050354
-0.12085
-0.182495
-0.136414
-0.0997925
-0.0918579
-0.0942993
-0.0897217
-0.0720215
-0.0631714
-0.0662231
-0.0561523
-0.0405884
0.00305176
0.0509644
0.0369263
-0.00335693
-0.0650024
-0.124207
-0.197144
-0.114441
0.0500488
0.12146
0.0997925
0.0564575
0.0183105
-0.00946045
0.000915527
0.0543213
0.0738525
0.0402832
0.043335
0.0689697
0.0463867
-0.000915527
-0.0112915
0.0289917
0.0344849
-0.0100708
-0.0476074
-0.0662231
-0.0875854
-0.104675
-0.0686646
0.00701904
0.09552
0.173035
0.197754
0.218811
0.16571
0.112305
0.103455
0.117798
0.147705
0.117798
0.0796509
0.106506
0.129395
0.142212
0.112
0.0634766
0.0320435
-0.0747681
-0.151978
-0.184021
-0.109863
-0.0918579
-0.0814819
-0.0408936
-0.0445557
-0.0302124
0.0335693
0.0653076
0.0738525
0.0701904
0.0344849
0.0378418
0.0579834
0.0189209
-0.0756836
-0.083313
-0.0411987
-0.0366211
-0.0387573
-0.0469971
-0.0732422
-0.0704956
-0.0183105
0.072937
0.165405
0.167847
0.128479
0.0830078
-0.0115967
-0.0265503
0.0454712
0.0335693
-0.020752
-0.0430298
-0.0366211
-0.10437
-0.142212
-0.0827026
0.00610352
0.0170898
-0.00640869
-0.0170898
-0.0735474
-0.0540161
0.0692749
0.223389
0.384827
0.460815
0.42511
0.245056
0.00274658
-0.147705
-0.232239
-0.225525
-0.164185
-0.138245
-0.192871
-0.260925
-0.312195
-0.293884
-0.174866
-0.0958252
-0.0952148
-0.0717163
-0.0265503
0.0726318
0.261841
0.392151
0.410156
0.374146
0.298157
0.12085
-0.0473022
-0.116272
-0.10376
-0.0592041
-0.0378418
-0.0357056
0.0143433
0.0372314
0.0265503
0.0469971
0.111389
0.169067
0.149536
0.132751
0.0830078
0.0576782
0.0680542
0.0875854
0.0949097
0.0863647
0.0698853
0.0457764
0.0369263
-0.00549316
-0.0405884
-0.0460815
-0.0463867
-0.020752
-0.0247192
-0.0332642
-0.0448608
-0.0271606
-0.0100708
-0.0244141
-0.0323486
-0.0357056
-0.0698853
-0.071106
-0.0186157
0.065918
0.126343
0.130005
0.136108
0.146179
0.171204
0.215454
0.253601
0.248413
0.255432
0.387268
0.487976
0.457764
0.448914
0.412903
0.161133
-0.231628
-0.406189
-0.408325
-0.383606
-0.290833
-0.24292
-0.230408
-0.238647
-0.168152
-0.0485229
-0.0387573
-0.118103
-0.193787
-0.245972
-0.205383
-0.163269
-0.144348
-0.110474
-0.0900269
-0.0308228
0.0863647
0.213928
0.273438
0.261536
0.20813
0.160217
0.124207
-0.00579834
-0.139771
-0.167542
-0.152283
-0.13092
-0.131836
-0.131836
-0.0897217
-0.0219727
0.03479
0.032959
0.0253296
0.0421143
0.0665283
0.03479
-0.0100708
-0.0292969
-0.00946045
0.00579834
-0.00671387
-0.00854492
-0.0280762
-0.0613403
-0.0762939
-0.0698853
-0.0698853
-0.0442505
-0.0430298
-0.0119019
0.0814819
0.127563
0.0961304
0.0814819
0.0872803
0.137634
0.179749
0.205688
0.317993
0.433655
0.571594
0.588074
0.444336
0.165405
-0.110474
-0.334778
-0.49408
-0.514221
-0.405884
-0.284729
-0.235901
-0.205688
-0.110779
-0.0265503
0.0326538
0.0497437
0.0222778
0.0146484
-0.104675
-0.204773
-0.151062
-0.0640869
-0.0497437
-0.0564575
0.0134277
0.121765
0.149841
0.0500488
-0.0112915
0.0183105
0.0131226
-0.0384521
-0.0827026
-0.155945
-0.201416
-0.206909
-0.1474
-0.0842285
-0.0402832
0.00457764
0.0100708
-0.0350952
-0.0650024
-0.072937
-0.0598145
-0.0466919
-0.0402832
-0.0720215
-0.0930786
-0.0744629
-0.0622559
-0.0604248
-0.0411987
-0.0222778
0.00579834
0.0823975
0.193787
0.21698
0.191956
0.168152
0.126648
0.0302124
-0.0830078
-0.0991821
-0.0820923
-0.0506592
0.00701904
0.0582886
0.0894165
0.0997925
0.13092
0.141907
0.065918
-0.0469971
-0.0350952
0.0289917
0.00946045
-0.0683594
-0.0839233
-0.0393677
-0.0137329
-0.00183105
-0.022583
0.0137329
0.045166
0.0656128
0.0704956
0.0271606
0.0137329
0.0482178
0.0891113
0.11261
0.133972
0.1474
0.00427246
-0.101929
-0.116272
-0.169067
-0.278015
-0.294189
-0.25177
-0.233459
-0.206604
-0.151672
-0.0784302
-0.00762939
-0.00396729
-0.055542
-0.050354
-0.0125122
-0.0534058
-0.0942993
-0.0997925
-0.0497437
0.0289917
0.0973511
0.083313
0.0521851
-0.0283813
-0.0967407
-0.090332
-0.0518799
-0.0561523
-0.0579834
-0.0588989
-0.057373
-0.00457764
0.0485229
0.0515747
0.0598145
0.0723267
0.104675
0.134277
0.126648
0.0753784
0.0689697
0.109253
0.119324
0.0808716
-0.00274658
-0.0683594
-0.0762939
-0.0518799
0.00610352
0.0427246
0.0558472
0.0732422
0.102234
0.062561
0.0326538
0.0317383
0.012207
-0.0442505
-0.107727
-0.0576782
0.0802612
0.16449
0.234375
0.250549
0.203857
0.10437
-0.0201416
-0.0418091
-0.0796509
-0.176392
-0.249939
-0.331116
-0.348816
-0.293579
-0.147705
0
0.0942993
0.0756836
-0.022583
-0.0732422
-0.111084
-0.163574
-0.160522
-0.10437
-0.0595093
-0.0354004
0.00366211
0.0686646
0.150452
0.202026
0.180664
0.0881958
-0.0930786
-0.144043
-0.0817871
-0.0134277
0.0198364
0.0753784
0.101624
0.0561523
0.0500488
0.150452
0.235596
0.281677
0.272217
0.187378
0.0552368
-0.0460815
-0.0790405
-0.0805664
-0.0759888
-0.0958252
-0.114746
-0.0619507
0.0317383
0.0830078
0.0909424
0.114746
0.0765991
-0.00244141
-0.00396729
-0.0469971
-0.132446
-0.194397
-0.190125
-0.107727
-0.0222778
0.0741577
0.109558
0.115967
0.0674438
0.0186157
-0.0299072
-0.0567627
-0.0674438
-0.0430298
0.0299072
0.085144
0.115356
0.0961304
0.0570679
0.00335693
-0.0439453
-0.00335693
0.017395
0.0204468
0.0146484
0.0540161
0.13031
0.123901
0.0283813
-0.0360107
-0.0744629
-0.134277
-0.144653
-0.126038
-0.115051
-0.112305
-0.121765
-0.105591
-0.032959
0.0543213
0.125122
0.126648
0.12207
0.112
0.0509644
-0.0164795
-0.0463867
-0.0534058
-0.0216675
0.0158691
-0.0302124
-0.0738525
-0.10376
-0.122986
-0.158691
-0.125427
-0.0323486
0.0192261
0.0793457
0.163879
0.196533
0.158081
0.0552368
0.0189209
-0.0189209
-0.0210571
0.00946045
0.0192261
-0.0390625
-0.0918579
-0.0827026
-0.06073
-0.0674438
-0.0515747
-0.0317383
0.0314331
0.0784302
0.0704956
0.0567627
0.114136
0.088501
0.0509644
0.0418091
0.0280762
0.00701904
0.00427246
0.00335693
0.00366211
-0.0164795
-0.0448608
-0.0466919
-0.0256348
-0.0372314
-0.0772095
-0.0848389
-0.0109863
0.0671387
0.0961304
0.127258
0.112
0.105896
0.100098
0.0680542
0.0817871
0.123291
0.136108
0.0588989
0.0558472
0.108337
0.124817
0.0726318
0.039978
0.00549316
-0.101929
-0.136719
-0.1651
-0.159607
-0.156555
-0.0967407
0.00366211
0.0772095
0.165405
0.18219
0.0946045
-0.00427246
0.00976562
0.0454712
-0.00946045
-0.0744629
-0.101318
-0.0927734
-0.100403
-0.0830078
-0.00213623
0.0579834
0.0756836
0.108032
0.162354
0.162048
0.110474
0.122986
0.137634
0.0231934
-0.0942993
-0.100098
-0.0857544
-0.00579834
0.0228882
-0.0198364
-0.0631714
-0.109863
-0.140686
-0.1297
-0.111084
-0.0790405
-0.0234985
0.0308228
0.0881958
0.0845337
0.0582886
0.0775146
0.0552368
-0.0723267
-0.18158
-0.187988
-0.159302
-0.121155
-0.0863647
-0.0759888
-0.0442505
-0.0222778
-0.0296021
-0.0473022
-0.0772095
-0.0842285
-0.0888062
-0.0909424
-0.0802612
-0.0448608
-0.0283813
0.00183105
0.0689697
0.11261
0.180054
0.281067
0.346985
0.366516
0.331421
0.184021
0.0570679
0.0152588
0.0137329
0.00335693
0.0466919
0.13092
0.221252
0.285339
0.291748
0.209656
0.0897217
-0.0418091
-0.119934
-0.202332
-0.221252
-0.212402
-0.184937
-0.162964
-0.10498
0.00396729
0.0845337
0.131836
0.194092
0.198669
0.162048
-0.0128174
-0.180664
-0.303955
-0.310669
-0.250549
-0.181274
-0.0653076
0.0210571
0.0234985
-0.0582886
-0.0967407
-0.0973511
-0.0784302
-0.0720215
-0.0665283
-0.0698853
-0.0540161
-0.0805664
-0.0967407
-0.0744629
-0.0595093
0.012207
0.0961304
0.144653
0.0958252
0.0311279
0.0308228
0.0628662
0.0485229
-0.0109863
-0.0292969
-0.0350952
-0.057373
-0.0537109
-0.0125122
0.0311279
0.0946045
0.107117
0.0653076
0.0570679
0.0881958
0.0827026
0.0765991
0.0827026
0.0506592
0.0341797
0.0177002
0.00915527
0.00579834
0.032959
0.142212
0.284729
0.291138
0.193176
0.16449
0.18158
0.266418
0.340881
0.328064
0.267944
0.118103
-0.0952148
-0.309143
-0.368042
-0.320435
-0.245972
-0.185852
-0.145874
-0.0698853
-0.0491333
-0.0308228
-0.0143433
0.0119019
-0.017395
-0.0534058
-0.017395
0.00946045
-0.0469971
-0.184631
-0.204773
-0.145874
-0.13031
-0.163879
-0.152283
-0.110474
0.000915527
0.126648
0.184021
0.204163
0.230408
0.16571
0.0888062
-0.00305176
-0.0985718
-0.12085
-0.0564575
-0.0170898
0.00244141
0.0363159
0.0778198
0.119019
0.139465
0.127563
0.118103
0.108337
0.0656128
0.0192261
-0.0396729
-0.057373
-0.0701904
-0.090332
-0.0891113
-0.0906372
-0.098877
-0.0622559
-0.0125122
0.105286
0.18158
0.202942
0.185852
0.156555
0.108643
0.000305176
-0.0622559
-0.067749
-0.0802612
-0.12207
-0.0863647
-0.0515747
-0.0140381
-0.00305176
-0.0595093
-0.107727
-0.105286
-0.0289917
0.0732422
0.213928
0.219727
0.166931
0.0549316
-0.00946045
-0.020752
-0.085144
-0.124817
-0.134888
-0.153809
-0.166626
-0.198669
-0.129089
-0.0305176
0.0317383
0.0576782
0.0756836
0.0335693
0.0106812
0.00457764
0.00213623
-0.0366211
0.0012207
0.0686646
0.128784
0.144958
0.155029
0.161438
0.153503
0.114136
0.072937
0.0802612
0.12085
0.109863
0.0668335
0.0161743
-0.00732422
-0.0112915
-0.00366211
0.0119019
0.0189209
-0.00427246
-0.0341797
-0.0454712
-0.0241089
-0.00366211
-0.00732422
0.00610352
0.0476074
0.0289917
-0.0491333
-0.124817
-0.168152
-0.143433
-0.103455
-0.105591
-0.0604248
0.0164795
0.0357056
0
-0.0588989
-0.142517
-0.148315
-0.110168
-0.0357056
0.0717163
0.0918579
0.0335693
0.0369263
0.0546265
0.0354004
-0.0012207
-0.022583
-0.0201416
0.000610352
0.0338745
-0.00915527
-0.00396729
-0.00518799
-0.00610352
0.0192261
0.108643
0.195312
0.237732
0.275269
0.233459
0.0970459
0.032959
-0.00396729
-0.00274658
0.0219727
0
-0.0213623
-0.0723267
-0.0900269
-0.11261
-0.0793457
0.0131226
0.0430298
0.0265503
-0.00305176
-0.0524902
-0.0564575
-0.0274658
-0.0588989
-0.0509644
0.0137329
0.0704956
0.117493
0.155945
0.177307
0.10437
0.0393677
0.00671387
0.0616455
0.088501
0.111389
0.135498
0.115051
0.103455
0.111694
0.0192261
-0.0997925
-0.130005
-0.108032
-0.105591
-0.127258
-0.152588
-0.1297
-0.0839233
-0.0491333
-0.0274658
0.00427246
0.0274658
0.0216675
0.0396729
0.00396729
-0.0527954
-0.151062
-0.246887
-0.282288
-0.272217
-0.265198
-0.290222
-0.187988
-0.0408936
0.0994873
0.116577
0.115967
0.107117
0.0305176
-0.0967407
-0.124512
-0.0784302
0.0296021
0.098877
0.128174
0.170593
0.187683
0.163879
0.155334
0.126953
0.0985718
0.0799561
0.0643921
0.0717163
0.0869751
0.142822
0.182495
0.218506
0.231018
0.175171
-0.00183105
-0.163269
-0.245056
-0.222168
-0.0991821
0.0384521
0.0778198
0.0302124
-0.0231934
-0.0494385
-0.0402832
0.00701904
0.124207
0.226746
0.211792
0.166626
0.137329
0.157166
0.185242
0.149536
0.133667
0.0753784
-0.0946045
-0.222473
-0.281067
-0.325012
-0.294495
-0.217285
-0.152283
-0.0854492
0.00610352
0.0808716
0.175476
0.172424
0.153198
0.148926
0.0619507
0.0289917
-0.020752
-0.0549316
-0.0698853
-0.143738
-0.231018
-0.220032
-0.15564
-0.11261
-0.0460815
0.0985718
0.163574
0.0927734
0.0637817
0.0369263
-0.0427246
-0.0537109
0.0112915
-0.0326538
-0.0744629
-0.0805664
-0.045166
-0.015564
0.00579834
-0.00762939
0.0161743
0.0662231
0.0552368
0.0256348
-0.0372314
-0.0482178
-0.017395
0.0341797
0.0506592
0.067749
0.0369263
-0.000610352
0.012207
0.0546265
0.0637817
0.0131226
-0.0366211
-0.022583
-0.0131226
0.00854492
0.0726318
0.134277
0.166626
0.159912
0.0915527
0.0265503
-0.0372314
-0.0802612
-0.093689
-0.0961304
-0.0701904
-0.00915527
0.0619507
0.167847
0.201111
0.179749
0.107117
-0.0210571
-0.168762
-0.19928
-0.151672
-0.0982666
-0.0396729
-0.0283813
0.00946045
0.0491333
0.0387573
-0.0216675
-0.03479
-0.0244141
-0.00793457
-0.0238037
-0.0564575
-0.0402832
-0.0192261
0.0363159
0.141602
0.234985
0.240173
0.144653
0.0744629
0.03479
0.0283813
0.0735474
0.0708008
0.062561
0.0637817
0.0424194
-0.0128174
-0.0622559
-0.0927734
-0.0708008
-0.0924683
-0.0756836
-0.03479
0.00396729
0.0247192
0.00427246
0.0692749
-0.0344849
-0.062561
-0.0906372
-0.159607
-0.161438
-0.158691
-0.177002
-0.186768
-0.180359
-0.151978
-0.105896
-0.0839233
0.0012207
0.0814819
0.106201
0.0979614
0.0311279
-0.0912476
-0.0939941
-0.0427246
0.0238037
0.0540161
0.0466919
0.0198364
0.0164795
0.0604248
0.160217
0.320129
0.433044
0.368347
0.208435
0.143433
0.103149
0.015564
-0.0128174
0.0338745
0.0695801
-0.00213623
-0.0613403
-0.0747681
-0.0582886
-0.071106
-0.129395
-0.169373
-0.16571
-0.0765991
0.0112915
0.098877
0.180969
0.224304
0.125427
-0.0735474
-0.220337
-0.320435
-0.326233
-0.244446
-0.121155
0.0112915
0.185242
0.246277
0.174255
0.0549316
-0.0402832
-0.0601196
-0.104065
-0.111389
-0.0808716
-0.0585938
-0.0762939
-0.141296
-0.204163
-0.243835
-0.259094
-0.265198
-0.171204
-0.055542
0.0708008
0.151672
0.197144
0.272217
0.272217
0.179443
0.0714111
0.0131226
0.0192261
0.03479
0.0149536
0.00671387
-0.0253296
-0.0265503
0.0134277
0.0500488
0.100098
0.134888
0.144348
0.124207
0.0863647
0.0509644
-0.0234985
-0.0994873
-0.148926
-0.176086
-0.114746
0.0158691
0.0720215
0.0744629
0.027771
0.00732422
0.071106
0.103455
0.0949097
0.146179
0.247803
0.318298
0.292664
0.157166
0.0674438
-0.0186157
-0.130005
-0.19043
-0.145569
-0.0454712
0.00213623
0.00335693
0.0524902
0.122986
0.117493
-0.0598145
-0.305786
-0.423584
-0.420837
-0.336609
-0.240173
-0.114746
-0.027771
-0.010376
-0.0393677
-0.085144
-0.141602
-0.193481
-0.144653
-0.0402832
0.0247192
0.110168
0.165405
0.173035
0.147705
0.226135
0.326843
0.326233
0.280151
0.19165
0.0692749
-0.0723267
-0.163879
-0.132751
-0.0198364
0.0753784
0.101929
0.0823975
0.0515747
0.0256348
-0.0418091
-0.10498
-0.143738
-0.0942993
0.000305176
0.101318
0.120239
0.111084
0.0674438
0.0146484
0.00213623
0.0497437
0.103455
0.177917
0.209351
0.198364
0.130615
0.0134277
-0.116882
-0.16449
-0.144043
-0.115662
0.0088501
0.110779
0.115662
0.158691
0.212097
0.158386
0.0692749
-0.0518799
-0.0787354
-0.0646973
-0.0897217
-0.149231
-0.147705
-0.0692749
0.0338745
0.110168
0.117493
0.0634766
0.0592041
0.0354004
-0.0827026
-0.1651
-0.137024
-0.0964355
-0.137024
-0.200806
-0.214539
-0.189514
-0.126343
-0.0708008
-0.065918
0.0314331
-0.0198364
-0.0588989
-0.0866699
-0.0912476
-0.0628662
-0.0616455
0.00518799
0.065918
0.0631714
0.0238037
-0.0128174
-0.0241089
0.03479
0.117188
0.143433
0.0531006
-0.0537109
-0.0930786
-0.0811768
-0.0775146
-0.0674438
-0.0177002
0.0460815
0.0372314
0.00640869
0.055542
0.107117
0.126648
0.0637817
0.00396729
0.00823975
0.0650024
0.0845337
0.0772095
0.0796509
0.0701904
0.0335693
0.0204468
-0.0106812
-0.0561523
-0.100098
-0.115967
-0.0793457
-0.0164795
0.0332642
0.0473022
0.039978
-0.0186157
-0.0509644
-0.0424194
-0.0302124
-0.00701904
0.0411987
0.172424
0.306702
0.307007
0.204773
0.116577
0.0592041
0.0106812
0.0363159
0.0656128
0.071106
0.0717163
0.0582886
0.0570679
0.110168
0.155029
0.193787
0.210266
0.163269
0.0787354
-0.00762939
-0.128479
-0.188293
-0.217896
-0.211792
-0.163574
-0.12085
-0.123291
-0.0842285
-0.0418091
-0.0112915
0.0469971
0.0643921
0.0588989
0.0228882
-0.0411987
-0.103455
-0.172424
-0.235291
-0.269775
-0.278015
-0.237732
-0.256958
-0.234375
-0.117798
-0.0479126
-0.0411987
0.0222778
0.108643
0.141602
0.0921631
0.0695801
0.101013
0.146484
0.158081
0.158997
0.143433
0.0827026
-0.0405884
-0.137634
-0.209656
-0.26001
-0.221863
-0.13855
-0.0234985
0.126343
0.212097
0.220947
0.249329
0.231323
0.145264
0.0460815
-0.00213623
0.00610352
0.0192261
0.0305176
0.0500488
0.0601196
0.108337
0.182495
0.133667
0.0354004
0.050354
0.0897217
0.107422
0.129089
0.155945
0.083313
-0.0143433
-0.124817
-0.133362
-0.0973511
-0.0628662
-0.0585938
-0.0753784
-0.106812
-0.162354
-0.21698
-0.259399
-0.255432
-0.114441
0.105286
0.274963
0.355225
0.341187
0.2771
0.124207
-0.0515747
-0.106201
-0.107117
-0.0830078
-0.0814819
-0.0723267
-0.06073
-0.06073
-0.0317383
0.00671387
0
-0.0881958
-0.184631
-0.220642
-0.238342
-0.178528
-0.0674438
0.107117
0.203247
0.176392
0.124207
0.0875854
0.0924683
0.0704956
0.0595093
-0.00213623
-0.0796509
-0.128784
-0.140686
-0.129089
-0.0643921
0.0375366
0.197144
0.346985
0.393066
0.296021
0.163879
0.0534058
0.0195312
-0.0137329
-0.00213623
0.0241089
0.0610352
0.0152588
-0.0286865
-0.0439453
-0.0631714
-0.111694
-0.1474
-0.127869
-0.0714111
-0.0454712
0.0100708
-0.00183105
-0.0387573
-0.0518799
-0.101929
-0.16449
-0.159302
-0.083313
0.039978
0.1297
0.1297
0.116577
0.124817
0.116272
0.0823975
0.0579834
-0.0198364
-0.0598145
-0.0805664
-0.039978
0.015564
0.0341797
0.00946045
-0.0256348
-0.0869751
-0.105286
-0.0662231
-0.0686646
-0.0845337
-0.0964355
-0.0820923
-0.09552
-0.107117
-0.0274658
0.0289917
0.06073
0.128174
0.180969
0.200806
0.143738
0.0933838
0.00946045
-0.107117
-0.254211
-0.358887
-0.318909
-0.178528
-0.022583
0.148315
0.302734
0.411987
0.416565
0.290527
0.194092
0.0985718
0.0146484
-0.0106812
0.00976562
-0.0421143
-0.119934
-0.118713
-0.0918579
-0.045166
0.0268555
0.0308228
0.0238037
0.0854492
0.183411
0.203857
0.141296
0.0375366
-0.050354
-0.116272
-0.191956
-0.257874
-0.232239
-0.191956
-0.0811768
0.010376
0.00244141
-0.0424194
-0.098877
-0.127563
-0.0650024
0.0744629
0.176086
0.154114
0.0970459
0.0537109
0.0585938
0.0430298
0.0219727
-0.0238037
0.00244141
0.0436401
0.0219727
-0.0234985
-0.017395
0.0354004
0.123901
0.198059
0.24292
0.264893
0.270691
0.280151
0.153198
0.00579834
-0.124817
-0.160217
-0.145264
-0.125732
-0.143738
-0.155029
-0.137024
-0.121155
-0.0585938
-0.0274658
-0.0680542
-0.111389
-0.119324
-0.101318
-0.0881958
-0.10376
-0.118713
-0.129089
-0.118713
-0.0842285
-0.0375366
0.0305176
0.131836
0.224915
0.25177
0.21698
0.245667
0.30426
0.308838
0.279541
0.281982
0.235291
0.108643
0.00488281
-0.0369263
-0.0778198
-0.117188
-0.10437
-0.0784302
-0.038147
0.0289917
0.0753784
0.0820923
0.0646973
0.0485229
0.0372314
-0.0210571
-0.0942993
-0.132751
-0.105591
-0.0982666
-0.112305
-0.0527954
0.0259399
0.0299072
0.0183105
0.0497437
0.0515747
0.00244141
-0.0494385
-0.0210571
-0.0534058
-0.160828
-0.25116
-0.309753
-0.404968
-0.383606
-0.222473
0.0262451
0.197144
0.218201
0.181885
0.173645
0.16449
0.157166
0.1474
0.120544
0.0949097
0.0421143
0.0286865
-0.0219727
-0.0759888
-0.0686646
-0.0372314
-0.0335693
0.0814819
0.238953
0.223694
0.127563
0.0234985
-0.0668335
-0.0845337
-0.0521851
-0.0909424
-0.152893
-0.157776
-0.145569
-0.166931
-0.134277
-0.0793457
-0.00152588
0.0973511
0.145569
0.109253
0.057373
0.0558472
0.0247192
-0.0402832
-0.0668335
-0.0827026
-0.085144
-0.06073
-0.00518799
-0.00366211
-0.0296021
-0.0558472
-0.0601196
-0.045166
-0.0296021
0.0393677
0.158081
0.278015
0.372925
0.396729
0.352173
0.340881
0.308838
0.200195
0.125732
0.0958252
0.0680542
0.0485229
-0.0305176
-0.114441
-0.111389
-0.071106
-0.0369263
-0.0213623
-0.0561523
-0.0698853
-0.132141
-0.238342
-0.263062
-0.173035
-0.0643921
0.00579834
0.0115967
-0.0390625
-0.111389
-0.114441
-0.0430298
0.0735474
0.319824
0.470276
0.400085
0.185242
-0.135803
-0.406799
-0.46051
-0.348816
-0.214233
-0.108948
-0.0723267
0.0653076
0.210571
0.291748
0.343018
0.397339
0.490112
0.550537
0.588074
0.592651
0.558472
0.375061
0.169678
-0.112305
-0.441284
-0.627136
-0.561829
-0.396729
-0.267639
-0.184021
-0.20874
-0.245667
-0.24231
-0.178528
-0.102844
0
0.0698853
0.0634766
0.000915527
-0.0927734
-0.0967407
-0.0332642
0.0497437
0.150757
0.279846
0.37262
0.381775
0.332947
0.232849
0.103455
0.0820923
0.0650024
-0.0280762
-0.0888062
-0.138245
-0.195618
-0.265198
-0.322876
-0.289612
-0.224304
-0.166626
-0.157166
-0.153503
-0.105591
-0.0747681
-0.0219727
0.0909424
0.185852
0.185242
0.0848389
-0.00701904
0.0210571
0.0537109
0.0344849
-0.0900269
-0.220337
-0.322571
-0.394287
-0.423584
-0.322266
-0.126953
-0.00579834
0.0949097
0.161133
0.157471
0.114441
0.0643921
-0.00274658
-0.0366211
-0.0119019
0.0653076
0.155334
0.177917
0.105286
-0.0299072
-0.162354
-0.205383
-0.115967
0.0415039
0.126343
0.205078
0.266418
0.278015
0.191956
0.0939941
0.0457764
-0.0292969
-0.100403
-0.135193
-0.116882
-0.0524902
0.0323486
0.163879
0.173035
0.206604
0.169983
0.055542
-0.0723267
-0.112915
-0.106201
-0.050354
-0.0369263
-0.0405884
0
0.0305176
0
-0.0100708
0.0668335
0.155334
0.177307
0.166931
0.115662
0.0411987
-0.0436401
-0.0335693
0.00610352
0.0378418
-0.00823975
-0.0866699
-0.133362
-0.171204
-0.157776
-0.114441
-0.123291
-0.0811768
-0.0253296
0.0521851
0.157166
0.177307
0.173645
0.1828
0.178223
0.0558472
-0.0793457
-0.0845337
-0.0238037
-0.00640869
0.0302124
0.0827026
0.0891113
0.0292969
-0.0198364
0.020752
0.0180054
-0.0650024
-0.127258
-0.110474
-0.057373
0.0253296
0.114441
0.0531006
-0.0436401
-0.0784302
0.00762939
0.083313
0.125732
0.158386
0.15686
0.126343
0.039978
0.0259399
-0.0125122
-0.0830078
-0.120544
-0.14679
-0.173645
-0.210876
-0.189209
-0.0933838
0.043335
0.161133
0.224304
0.20874
0.187378
0.135193
0.0991821
0.112
0.0994873
0.0369263
-0.0598145
-0.172424
-0.235901
-0.269165
-0.271301
-0.224609
-0.0369263
0.149841
0.259705
0.314941
0.303955
0.31189
0.274353
0.206909
0.174255
0.202637
0.192871
0.118408
-0.0393677
-0.0958252
-0.0982666
-0.131531
-0.113831
-0.0924683
-0.199585
-0.275269
-0.240173
-0.17395
-0.209045
-0.172424
-0.0421143
-0.0274658
-0.055542
-0.072937
-0.0827026
-0.0616455
-0.00610352
-0.00518799
-0.03479
-0.0289917
0.0140381
0.00793457
-0.0430298
-0.10376
-0.115051
-0.106506
0.00457764
0.152893
0.238342
0.245056
0.150452
0.0469971
0.00396729
-0.12207
-0.213623
-0.199585
-0.112915
-0.00518799
0.065918
0.101013
0.0839233
0.0344849
-0.0149536
-0.0515747
-0.0692749
-0.0592041
-0.00946045
0.0186157
-0.00518799
-0.0296021
-0.0561523
-0.0558472
-0.0119019
0.0390625
0.0842285
0.0500488
-0.0564575
-0.127563
-0.194702
-0.183105
-0.015564
0.102539
0.0238037
-0.0210571
0.0585938
0.153198
0.142212
0.078125
0.0378418
0.0424194
0.0717163
0.0692749
0.032959
0
0.0384521
0.125427
0.19043
0.27771
0.355225
0.350037
0.315857
0.23407
0.108643
-0.0201416
-0.0296021
-0.112915
-0.169067
-0.191956
-0.251465
-0.285339
-0.228882
-0.128784
-0.12085
-0.220642
-0.290222
-0.344849
-0.303955
-0.233765
-0.107727
0.0350952
0.188599
0.274963
0.335693
0.295715
0.185547
0.180359
0.208435
0.204773
0.167847
0.0778198
-0.062561
-0.182495
-0.264587
-0.297546
-0.269165
-0.226746
-0.12146
-0.0357056
-0.0393677
-0.0820923
-0.104065
-0.0827026
-0.0134277
0.0375366
0.0561523
0.0216675
-0.0567627
-0.106201
-0.0888062
-0.118408
-0.150146
-0.142822
-0.0518799
0.038147
0.105286
0.157776
0.196228
0.224304
0.253601
0.265808
0.254822
0.219727
0.185852
0.205383
0.325928
0.388794
0.315247
0.181885
0.0296021
-0.0387573
-0.110168
-0.137024
-0.112
-0.0488281
-0.0839233
-0.164795
-0.250854
-0.252075
-0.215149
-0.238953
-0.248108
-0.191345
-0.072937
0.0747681
0.164795
0.167542
0.100708
-0.0527954
-0.194702
-0.178223
-0.0378418
0.117798
0.255737
0.253601
0.110779
0.0198364
0.012207
0.0253296
0.00793457
-0.0476074
-0.101624
-0.0924683
-0.0735474
-0.0894165
-0.143738
-0.21759
-0.263062
-0.278015
-0.213928
-0.0823975
0.0680542
0.0741577
0.00976562
-0.0317383
0.0137329
0.0570679
0.101013
0.137329
0.121155
0.175171
0.256653
0.249329
0.155945
0.038147
-0.0772095
-0.0552368
-0.00823975
-0.0637817
-0.10376
-0.0552368
0.00335693
0.0598145
0.218506
0.26001
0.131531
-0.0323486
-0.0967407
-0.0714111
-0.0421143
0.0134277
0.0683594
0.117493
0.140686
0.115356
0.0436401
-0.0933838
-0.212097
-0.224915
-0.155945
-0.0592041
0.115662
0.233459
0.1651
0.0665283
0.0363159
0.0421143
0.0906372
0.126343
0.1297
0.0152588
-0.0479126
-0.0338745
-0.0549316
-0.183411
-0.32959
-0.36438
-0.292053
-0.213623
-0.085144
0.00823975
0.0497437
0.0616455
0.0473022
0.062561
0.057373
0.0747681
0.0967407
0.0744629
0.045166
0.0317383
-0.0332642
-0.129395
-0.213623
-0.259399
-0.176392
-0.0579834
0.0186157
0.0939941
0.13916
0.14801
0.100708
0.0204468
-0.00946045
-0.022583
-0.0595093
-0.0213623
0.0332642
0.0552368
0.120239
0.137939
0.108337
0.0601196
-0.00915527
-0.0427246
-0.0271606
0.0201416
0.128174
0.299988
0.401917
0.362854
0.331726
0.237732
0.1297
0.0765991
0.0286865
-0.121765
-0.245056
-0.271301
-0.194397
-0.125732
-0.045166
-0.0531006
-0.166931
-0.198975
-0.208435
-0.19928
-0.176086
-0.0912476
-0.0283813
-0.0396729
-0.0906372
-0.133057
-0.162354
-0.138855
-0.121155
-0.0912476
-0.0494385
-0.0543213
-0.0491333
-0.027771
-0.0149536
-0.0448608
-0.0198364
0.0109863
0.0140381
0.0247192
0.0125122
0.0109863
0.0549316
0.0827026
0.0631714
0.017395
-0.045166
-0.03479
0.0216675
0.06073
0.114441
0.143738
0.118713
0.0640869
0
-0.0198364
0.0286865
0.103455
0.185242
0.260315
0.300903
0.280762
0.159912
0.111389
0.168457
0.172424
0.119934
0.0808716
0.0292969
-0.0256348
-0.118103
-0.218811
-0.249939
-0.224915
-0.119629
-0.0134277
0.11322
0.157471
0.173645
0.106506
0.0753784
-0.00701904
-0.181885
-0.389709
-0.471497
-0.360107
-0.130615
0.0311279
0.102234
0.154419
0.12207
0.0558472
-0.00793457
-0.0439453
-0.0802612
-0.124817
-0.119629
-0.0650024
0.0186157
0.0994873
0.207214
0.222473
0.166016
0.115967
0.111084
0.140076
0.129089
0.100708
0.0552368
0.00213623
-0.0506592
-0.0848389
-0.0747681
-0.102539
-0.138245
-0.154724
-0.179749
-0.177002
-0.128479
-0.0357056
0.00671387
-0.0512695
-0.116272
-0.150452
-0.15686
-0.181885
-0.169678
-0.0335693
0.107727
0.144958
0.0970459
0.0250244
-0.0827026
-0.127258
-0.102234
-0.012207
0.0863647
0.0961304
0.0521851
-0.00213623
-0.0860596
-0.0271606
0.0906372
0.0543213
0.0341797
0.0637817
0.130615
0.133667
0.140381
0.148315
0.150452
0.144043
0.140076
0.150146
0.119934
0.117188
0.169373
0.203552
0.215454
0.193481
0.159607
0.105896
0.0161743
0.0634766
0.0817871
0.0790405
0.0149536
-0.115967
-0.229797
-0.232544
-0.194092
-0.205078
-0.124207
-0.0772095
-0.0415039
0.0241089
0.0482178
-0.0366211
-0.137939
-0.117798
-0.0918579
-0.114441
0.00732422
0.152893
0.15564
0.0390625
-0.0857544
-0.0982666
-0.0350952
0.0430298
0.114136
0.0259399
-0.112
-0.180664
-0.187073
-0.275574
-0.30304
-0.191956
-0.0473022
0.0134277
0.0735474
0.128784
0.133057
0.0869751
0.0872803
0.115051
0.0708008
-0.06073
-0.114441
-0.0994873
-0.0961304
-0.0982666
-0.0549316
-0.0460815
0.0289917
0.132751
0.1828
0.170898
0.115356
0.0402832
-0.0592041
-0.107117
-0.0775146
-0.0595093
-0.0601196
-0.131531
-0.145264
-0.0839233
-0.00976562
0.0119019
0.109558
0.129089
0.0991821
0.0524902
0.015564
0.00701904
0.0234985
0.062561
0.116272
0.166931
0.161743
0.133667
0.123596
0.0891113
0.0952148
0.12207
0.100403
0.0585938
0.09552
0.117798
0.0463867
-0.0515747
0.00396729
0.0384521
-0.0204468
-0.0854492
-0.0390625
0.0369263
0.0506592
-0.0112915
-0.0576782
-0.0537109
0
0.00793457
0.0234985
0.0341797
0.0271606
-0.00946045
-0.121765
-0.206604
-0.202942
-0.22522
-0.238953
-0.0332642
0.25238
0.538635
0.732117
0.634766
0.364075
-0.0393677
-0.271606
-0.232849
-0.231323
-0.248108
-0.210876
-0.233459
-0.269775
-0.2771
-0.195618
-0.0283813
0.0753784
0.00183105
-0.0653076
-0.0897217
-0.169983
-0.233765
-0.212708
-0.0802612
0.032959
0.0961304
0.103455
0.167542
0.166931
0.0799561
0.101013
0.181885
0.201721
0.163269
0.0897217
-0.0460815
-0.172119
-0.205994
-0.223389
-0.222473
-0.187988
-0.135803
-0.078125
-0.062561
-0.0012207
0.100098
0.179138
0.21759
0.180969
0.126343
-0.00671387
-0.100403
-0.17395
-0.243225
-0.229797
-0.177917
-0.109558
-0.0457764
0.00946045
0.0140381
-0.00701904
-0.0299072
-0.0820923
0.00152588
0.120544
0.198059
0.223389
0.256042
0.295105
0.32959
0.317688
0.292664
0.2771
0.191956
0.184021
0.241394
0.217285
0.117188
0.0292969
0.00488281
0.0900269
0.237427
0.29541
0.186768
0.0112915
-0.202637
-0.402527
-0.40741
-0.288696
-0.184021
-0.151367
-0.178833
-0.22522
-0.135803
0.0109863
0.085144
0.123596
0.203857
0.133667
-0.017395
-0.101624
-0.0906372
-0.0384521
0.0418091
0.127869
0.135193
0.0512695
-0.0402832
-0.124207
-0.233459
-0.335693
-0.325928
-0.226135
-0.0790405
0.0570679
0.154724
0.177917
0.168152
0.115662
0.0564575
0.0497437
0.0643921
0.0881958
0.122681
0.126648
0.0927734
0.0506592
0.0192261
-0.0506592
-0.0830078
-0.0341797
-0.0292969
-0.0170898
-0.0115967
-0.00579834
-0.039978
-0.0753784
-0.105896
-0.0967407
-0.0927734
-0.159302
-0.137329
-0.0231934
0.0701904
0.0714111
0.038147
0.0488281
0.13916
0.155029
0.1297
0.166931
0.306396
0.551758
0.70282
0.731506
0.63324
0.354309
-0.112
-0.575256
-0.652161
-0.596008
-0.555725
-0.446167
-0.273132
-0.161438
-0.0234985
0.0775146
0.0247192
-0.0454712
-0.0326538
-0.0680542
-0.0552368
0.177612
0.306091
0.282898
0.21637
0.262756
0.260925
0.139465
0.0289917
-0.102234
-0.229492
-0.305481
-0.312195
-0.26947
-0.131531
0.0723267
0.285034
0.435181
0.49469
0.482788
0.393066
0.183716
-0.0299072
-0.230713
-0.378113
-0.462341
-0.474854
-0.441589
-0.413208
-0.31311
-0.238037
-0.174866
-0.102539
-0.022583
0.093689
0.128479
0.115356
0.0830078
0.0814819
0.0717163
0.0363159
0.0350952
0.0256348
0.0561523
0.0933838
0.065918
0.0125122
-0.0558472
-0.0619507
-0.00854492
0.0161743
0.0570679
0.0537109
-0.0137329
-0.0552368
-0.0692749
0.000610352
0.127869
0.26001
0.296631
0.254211
0.211487
0.11322
0.0732422
0.0894165
0.101929
0.0897217
0.0778198
0.0619507
0.0579834
0.0201416
-0.0161743
-0.11261
-0.216675
-0.22522
-0.13092
-0.06073
0.0421143
0.10498
0.0521851
-0.0106812
-0.12085
-0.131226
0.0790405
0.33905
0.522766
0.67749
0.684509
0.489197
0.198669
0.0146484
-0.136414
-0.275574
-0.402222
-0.452271
-0.439453
-0.299683
-0.124512
-0.0970459
-0.0915527
-0.0927734
-0.136108
-0.18158
-0.229187
-0.249634
-0.199585
-0.140686
-0.126343
-0.0576782
0
0.00427246
-0.0115967
-0.0259399
-0.0161743
-0.00946045
-0.0137329
-0.0143433
-0.00549316
-0.00793457
-0.0167847
0.00946045
0.0653076
0.126648
0.151062
0.142517
0.0222778
-0.142517
-0.267029
-0.281677
-0.284729
-0.230713
-0.160828
-0.0979614
-0.0259399
0.0387573
0.107117
0.090332
0.057373
0.0973511
0.196533
0.289307
0.330811
0.311279
0.185242
0.039978
-0.0479126
-0.0720215
0.00946045
0.110168
0.181885
0.327454
0.413208
0.340881
0.281372
0.239868
0.202942
0.129089
0.0106812
-0.0213623
0.090332
0.144653
0.143738
0.0985718
0.00549316
-0.108337
-0.0930786
-0.0418091
-0.150146
-0.196228
-0.230103
-0.335388
-0.363464
-0.340881
-0.273132
-0.195618
-0.105286
-0.0216675
-0.0177002
-0.0744629
-0.137024
-0.168762
-0.13031
-0.105286
-0.127869
-0.15686
-0.13092
-0.14801
-0.14801
-0.0738525
0.0170898
0.101013
0.170898
0.249634
0.290833
0.225525
0.0564575
-0.0415039
-0.0674438
-0.0891113
-0.151367
-0.09552
0.0354004
0.100708
0.0500488
0.0570679
0.112
0.133667
0.116272
0.0814819
0.0424194
-0.0119019
-0.03479
-0.0616455
-0.0622559
-0.0198364
0.0241089
0.0457764
0.0524902
0.0228882
-0.0747681
-0.115356
-0.0622559
0.00732422
0.101318
0.246887
0.416565
0.450134
0.449524
0.395203
0.2005
-0.0106812
-0.210876
-0.293579
-0.274048
-0.108032
-0.0131226
-0.0894165
-0.221252
-0.267639
-0.240479
-0.143738
0.126038
0.421448
0.492249
0.220642
-0.0698853
-0.151978
-0.143738
-0.186462
-0.149231
-0.0576782
-0.0296021
-0.0634766
-0.122986
-0.133972
-0.102539
-0.0628662
-0.0521851
-0.0509644
0.0186157
0.168152
0.280151
0.325623
0.315552
0.334167
0.222168
0.0457764
-0.124207
-0.250244
-0.312805
-0.264282
-0.13092
-0.06073
-0.0619507
-0.0747681
-0.0576782
-0.0588989
-0.09552
-0.124512
-0.162659
-0.154419
-0.093689
-0.0344849
0.0415039
0.0756836
0.0241089
-0.0244141
-0.0405884
0.0332642
0.0946045
0.116882
0.128174
0.108643
0.0924683
0.0637817
0.0479126
0.0714111
0.161743
0.272827
0.26062
0.255737
0.314941
0.33905
0.2005
0.0106812
-0.131836
-0.232239
-0.264587
-0.285645
-0.225525
-0.177612
-0.0680542
-0.00457764
0.027771
0.0778198
0.110474
0.133057
0.170898
0.223083
0.166626
0.0119019
-0.0384521
-0.00915527
-0.0958252
-0.166321
-0.158386
-0.186157
-0.189819
-0.098877
-0.0131226
-0.00213623
-0.101013
-0.15686
-0.177002
-0.258179
-0.224915
-0.0424194
0.0686646
0.0778198
0.118103
0.11322
0.0820923
0.0592041
0.0991821
0.171814
0.196228
0.206299
0.188293
0.110779
0.0524902
-0.0256348
-0.0549316
0.00823975
0.0576782
0.0790405
0.110474
0.128784
0.0875854
-0.00213623
-0.0637817
-0.0534058
-0.0210571
-0.0204468
0.0311279
0.0732422
0.0915527
0.0894165
0.0158691
-0.0741577
-0.168152
-0.237427
-0.266724
-0.242615
-0.162659
-0.017395
0.0784302
0.0750732
0.0793457
0.106812
0.152893
0.129089
0.0790405
0.0524902
-0.0497437
-0.138855
-0.211487
-0.16571
-0.045166
0.0268555
0.139771
0.197144
0.155029
0.0891113
0.0326538
-0.0653076
-0.180359
-0.179443
-0.0918579
0.072937
0.31189
0.385742
0.39032
0.256653
0.0787354
-0.0424194
-0.071106
-0.078125
-0.168152
-0.283203
-0.260925
-0.155029
-0.0396729
0.256042
0.444336
0.448608
0.507507
0.491943
0.31189
0.0305176
-0.0701904
-0.0509644
-0.0650024
-0.13855
-0.178833
-0.176697
-0.222473
-0.270996
-0.240784
-0.176392
-0.150146
-0.157776
-0.143127
-0.110474
-0.0909424
-0.0927734
-0.113525
-0.0756836
0.012207
0.0701904
0.174866
0.243835
0.253601
0.236816
0.184326
0.12207
0.132446
0.11322
0.0411987
-0.105591
-0.317078
-0.445862
-0.432129
-0.293579
-0.062561
0.106506
0.106506
0.0112915
-0.0735474
-0.115662
-0.078125
0.0311279
0.0842285
0.0738525
0.0344849
-0.0140381
-0.0259399
0.0231934
0.0576782
0.0759888
0.0506592
-0.0271606
-0.0561523
-0.0442505
-0.0650024
-0.0604248
-0.00213623
0.0796509
0.126953
0.279846
0.356445
0.292664
0.231018
0.377502
0.474548
0.481567
0.393677
0.185242
-0.170898
-0.47699
-0.533447
-0.314026
-0.0534058
0.0839233
0.13855
0.0830078
-0.0616455
-0.15564
-0.241394
-0.19104
-0.0582886
0.100403
0.13855
0.0830078
0.027771
-0.129089
-0.308533
-0.35675
-0.282288
-0.240479
-0.151062
-0.0634766
-0.0500488
0.00518799
0.071106
0.0427246
0.0146484
0.00396729
0.0424194
0.145264
0.201721
0.217896
0.253601
0.316162
0.330811
0.197449
0.0735474
0.00213623
-0.0439453
-0.108948
-0.113525
-0.117493
-0.187073
-0.303955
-0.403137
-0.417175
-0.390625
-0.297241
-0.170288
0.038147
0.255432
0.368042
0.378723
0.255127
0.0759888
-0.0497437
-0.144348
-0.159912
-0.10437
0.00335693
0.0564575
0.0344849
0.0296021
0.0341797
0.032959
0.00671387
0.00244141
-0.00549316
-0.0723267
-0.126038
-0.116882
-0.0601196
0.0134277
0.155945
0.220337
0.130005
0.0238037
-0.146484
-0.306702
-0.238342
-0.100098
0.00396729
0.0350952
0.03479
0.107727
0.185852
0.227356
0.27832
0.370789
0.403442
0.331116
0.222168
0.121155
0.10437
0.090332
-0.0881958
-0.19043
-0.195007
-0.176086
-0.106812
0
0.00274658
-0.0570679
-0.0796509
-0.03479
0.012207
-0.0418091
-0.0732422
-0.0515747
-0.0216675
-0.0247192
-0.0543213
-0.172729
-0.283203
-0.280151
-0.308228
-0.278015
-0.146484
-0.0622559
-0.0119019
0.0189209
0.0289917
0.0387573
0.00549316
-0.0534058
-0.0949097
-0.0308228
0.0567627
0.122986
0.177612
0.126648
0.0234985
-0.0921631
-0.196228
-0.184937
-0.133667
-0.124817
-0.114746
-0.0488281
-0.0302124
-0.0164795
0.000915527
0.0216675
0.0576782
0.0769043
0.0881958
0.0775146
0.045166
-0.00213623
-0.017395
0.00488281
0.012207
0
0.0552368
0.142517
0.143433
0.12207
0.133972
0.202942
0.305176
0.443726
0.524597
0.465088
0.375061
0.149231
-0.0588989
-0.113831
-0.134888
-0.147095
-0.0738525
0.0302124
0.0820923
0.00793457
-0.0485229
-0.105286
-0.133362
-0.14801
-0.172119
-0.0772095
0.078125
0.175476
0.227051
0.148621
-0.0253296
-0.227661
-0.26825
-0.244446
-0.147095
0.0189209
0.0534058
0.00671387
-0.0161743
-0.0613403
-0.130005
-0.181885
-0.189209
-0.176086
-0.0888062
0.0396729
0.0723267
0.0650024
0.0457764
-0.0393677
-0.0842285
-0.0598145
-0.0546265
-0.0473022
-0.0372314
-0.0689697
-0.1297
-0.167542
-0.195007
-0.227356
-0.26825
-0.164185
-0.00671387
0.180054
0.231628
0.19043
0.110779
0.0192261
-0.00518799
-0.0244141
0.0289917
0.124207
0.182495
0.168457
0.184021
0.213318
0.16571
0.0256348
-0.0570679
-0.0656128
-0.0683594
-0.0689697
-0.0247192
-0.0112915
-0.0369263
-0.0534058
-0.045166
-0.00366211
-0.00610352
-0.0198364
-0.0689697
-0.133057
-0.156555
-0.155334
-0.157776
-0.16449
-0.10376
0.0125122
0.0466919
0.0360107
0.145264
0.218811
0.230408
0.190125
0.0497437
-0.00854492
-0.012207
0.0497437
0.112305
0.124817
0.179749
0.240479
0.239868
0.221558
0.24353
0.253906
0.269775
0.203552
0.124817
0.0540161
-0.09552
-0.238037
-0.275574
-0.180969
-0.0637817
0.0204468
0.0698853
0.0204468
-0.0402832
-0.0949097
-0.192871
-0.213928
-0.295105
-0.335693
-0.249329
-0.110779
0.00823975
0.0888062
0.0772095
-0.0341797
-0.108948
-0.06073
0.0320435
0.0808716
0.109558
0.142822
0.111389
0.0524902
0.010376
-0.0378418
-0.088501
-0.0595093
0.00640869
0.0213623
0.0241089
0.00854492
-0.0466919
-0.0628662
-0.083313
-0.130005
-0.0958252
-0.0613403
-0.0320435
0.0372314
0.0997925
0.198975
0.294189
0.325012
0.288086
0.280762
0.23468
0.201111
0.163269
0.133057
0.105591
0.0247192
-0.0231934
-0.071106
-0.122986
-0.234985
-0.310974
-0.271912
-0.167236
-0.067749
0.022583
0.136108
0.246277
0.249939
0.176697
0.0845337
0.109253
0.188904
0.17334
0.148315
0.134888
0.108948
0.0198364
-0.0601196
-0.0363159
0.107727
0.158081
0.0787354
-0.0491333
-0.240784
-0.325012
-0.335999
-0.356445
-0.318909
-0.222168
-0.132446
-0.170593
-0.239868
-0.215454
-0.184631
-0.163879
-0.0671387
0.0668335
0.0778198
0.0708008
0.0991821
0.0964355
0.0784302
0.0909424
0.0360107
-0.00946045
-0.00732422
0.0335693
0.057373
0.0994873
0.20752
0.292664
0.291748
0.193176
0.19043
0.218506
0.220032
0.19989
0.112915
-0.0842285
-0.122681
-0.0308228
0.0216675
0.00946045
-0.0997925
-0.112305
-0.0491333
0.0109863
0.112
0.158386
0.0585938
0.0216675
-0.062561
-0.182495
-0.298157
-0.26062
-0.149231
-0.0415039
-0.00671387
-0.043335
-0.122375
-0.124512
-0.057373
-0.00823975
-0.00244141
-0.0216675
-0.0137329
-0.0167847
-0.0128174
-0.0350952
-0.0552368
-0.0448608
-0.0698853
-0.088501
-0.0445557
0.00976562
0.0973511
0.215759
0.317688
0.343933
0.354614
0.355225
0.332642
0.223083
0.0912476
-0.0881958
-0.122375
-0.109863
-0.0704956
-0.0363159
-0.10376
-0.138855
-0.152893
-0.0997925
-0.00244141
0.0753784
0.0991821
0.0830078
0.0253296
-0.0558472
-0.140991
-0.272522
-0.314636
-0.188293
0.000305176
0.0802612
0.13855
0.0949097
-0.0753784
-0.190125
-0.237122
-0.203552
-0.1297
-0.107727
-0.132751
-0.193787
-0.234985
-0.128784
0.0765991
0.16571
0.155945
0.17334
0.243835
0.230103
0.0427246
-0.117798
-0.126953
-0.152283
-0.148315
-0.116272
-0.0265503
0.13916
0.263367
0.325623
0.362244
0.354004
0.301819
0.193787
0.0726318
-0.00396729
-0.083313
-0.122986
-0.197449
-0.267639
-0.196838
-0.112915
-0.0686646
-0.0405884
-0.0186157
0.0421143
0.0827026
0.100708
0.0680542
0.0134277
-0.00213623
0.00396729
-0.0112915
0.000915527
0.0671387
0.193787
0.309143
0.286865
0.202332
0.146484
-0.0354004
-0.22522
-0.334778
-0.357361
-0.328064
-0.254211
-0.133362
-0.0637817
-0.0430298
0
0.0717163
0.0512695
0.0228882
-0.00518799
-0.0344849
-0.0604248
-0.0860596
-0.0909424
-0.050354
-0.0283813
0
0.0613403
0.141296
0.13916
0.0994873
-0.00213623
-0.123596
-0.133667
-0.148315
-0.134888
-0.0894165
0.0610352
0.22644
0.293579
0.247192
0.122986
-0.0369263
-0.0195312
0.184326
0.349426
0.298767
0.192566
0.133667
0.0784302
-0.0540161
-0.172729
-0.132751
-0.00274658
0.0765991
0.166321
0.163269
0.015564
-0.21698
-0.281677
-0.231018
-0.13855
-0.0350952
0.0891113
0.190735
0.169373
0.185242
0.1651
0.0823975
0.062561
0.0930786
0.0537109
-0.0479126
-0.109253
-0.144348
-0.167542
-0.219421
-0.137939
-0.0588989
0.00366211
0.0765991
0.0961304
0.117188
0.0479126
-0.0372314
-0.113831
-0.195923
-0.183716
-0.158691
-0.0997925
0.0369263
0.241394
0.288391
0.246582
0.103455
-0.143738
-0.232544
-0.268555
-0.189514
-0.0888062
-0.112305
-0.131836
-0.0918579
-0.06073
-0.0817871
-0.104675
-0.0161743
0.121765
0.241394
0.27832
0.289001
0.422363
0.464172
0.437012
0.437927
0.233765
-0.0430298
-0.18219
-0.0656128
0.0634766
0.0820923
0.0186157
-0.0708008
-0.114441
-0.121765
-0.136414
-0.146179
-0.124817
-0.129089
-0.176392
-0.170593
-0.101929
-0.0991821
-0.175171
-0.232849
-0.219727
-0.162659
-0.0869751
0.0289917
0.139771
0.166626
0.142517
0.112
0.0656128
0.0357056
0.0891113
0.14801
0.136414
0.152893
0.278931
0.275269
0.0701904
-0.117188
-0.189514
-0.269165
-0.361023
-0.233154
-0.117493
-0.0561523
0.00610352
0.0671387
0.0802612
0.083313
0.0814819
0.0741577
-0.0296021
-0.093689
-0.0909424
-0.0802612
-0.117798
-0.108032
-0.0991821
-0.0848389
-0.012207
0.106506
0.351257
0.663147
0.967712
1.09039
1.02875
0.573425
-0.0561523
-0.453491
-0.506592
-0.401306
-0.284119
-0.166931
-0.110474
-0.0964355
-0.062561
-0.0183105
-0.0271606
-0.0747681
-0.178833
-0.292664
-0.373535
-0.393066
-0.380554
-0.327148
-0.275269
-0.230408
-0.184021
-0.111389
-0.00762939
0.0735474
0.0881958
0.0942993
0.0967407
-0.00335693
-0.144958
-0.229187
-0.134583
0.0302124
0.138855
0.146179
0.133972
-0.0143433
-0.130005
-0.188293
-0.234985
-0.23407
-0.194397
-0.154114
-0.0427246
0.0646973
0.000610352
-0.0720215
-0.108948
-0.0680542
0.00213623
0.0723267
0.192261
0.313721
0.39032
0.427551
0.394592
0.179138
-0.13092
-0.147095
-0.0598145
0.0952148
0.309753
0.431519
0.539246
0.560303
0.39917
0.198669
0.0430298
-0.108948
-0.152283
-0.0604248
0.0582886
0.175171
0.157471
0.015564
-0.123291
-0.241089
-0.311584
-0.358582
-0.284119
-0.115662
-0.00823975
0.0485229
0.0561523
-0.038147
-0.177917
-0.220947
-0.164795
-0.108337
-0.0942993
-0.110474
-0.118713
-0.0808716
-0.0357056
-0.0515747
-0.0735474
-0.128479
-0.1828
-0.241394
-0.249329
-0.184937
-0.0714111
0.0579834
0.150146
0.202637
0.211792
0.128174
-0.000610352
-0.0543213
-0.0790405
-0.125427
-0.141296
-0.0698853
-0.0106812
0.0411987
0.168152
0.309448
0.44342
0.477295
0.465088
0.3479
0.13855
-0.0610352
-0.337524
-0.547791
-0.55603
-0.414734
-0.174255
-0.0115967
0.0741577
0.0628662
0.0540161
0.100708
0.162048
0.154114
0.116272
0.142212
0.169678
0.16449
0.132751
0.0427246
0.0146484
0.0949097
0.249329
0.354309
0.338745
0.185242
-0.00640869
-0.161438
-0.218201
-0.200806
-0.190125
-0.139465
-0.088501
-0.0640869
-0.0457764
0.0012207
-0.00366211
-0.0958252
-0.211487
-0.253601
-0.158386
-0.043335
0.085144
0.198669
0.248108
0.271912
0.368347
0.433655
0.392456
0.201111
-0.101624
-0.307007
-0.304871
-0.202026
-0.132446
-0.0613403
0.0543213
0.112305
0.0457764
-0.130005
-0.186768
-0.0985718
-0.0164795
0.0228882
-0.0549316
-0.124817
-0.151672
-0.181274
-0.169983
-0.0994873
-0.0088501
0.00671387
-0.00946045
0.00701904
-0.039978
-0.135803
-0.144958
-0.0970459
-0.0759888
-0.0772095
-0.0634766
-0.0204468
0.0842285
0.151367
0.136108
0.0674438
0.00823975
0.00854492
0.0387573
0.0457764
0.116272
0.131531
0.0579834
-0.0387573
-0.157166
-0.195007
-0.057373
0.0747681
0.0915527
0.0848389
0.0756836
0.0546265
-0.0268555
0.0189209
0.125732
0.150452
0.181885
0.228882
0.201721
0.0564575
-0.140991
-0.179138
-0.201416
-0.192566
-0.253601
-0.238647
-0.13855
-0.0592041
-0.022583
0.0244141
0.0964355
0.125122
0.11261
0.207825
0.367737
0.481873
0.469055
0.470886
0.382996
0.195923
0.027771
-0.0296021
-0.0466919
-0.0338745
-0.105591
-0.209351
-0.366516
-0.382385
-0.257874
-0.202637
-0.172729
-0.13031
-0.102844
-0.100098
-0.0860596
-0.0439453
-0.0134277
0.0402832
0.0537109
0.0158691
0
-0.00457764
-0.0231934
0.0125122
0.0134277
0.0149536
0.0582886
0.0918579
0.00335693
-0.0177002
0.043335
0.0592041
0.0335693
0.0408936
0.182495
0.279541
0.323486
0.316467
0.17395
-0.00793457
-0.250549
-0.288391
-0.262756
-0.278625
-0.23468
-0.138245
-0.0564575
-0.015564
-0.00610352
0
0.0604248
0.0869751
0.050354
-0.00701904
0.00518799
0.0283813
0.027771
0.0183105
0.0323486
0.0610352
0.0631714
0.0170898
-0.0177002
-0.00488281
0.113831
0.237122
0.309143
0.30365
0.285339
0.33905
0.313721
0.153198
0.0546265
0.0283813
-0.00427246
-0.0509644
-0.00305176
0.0363159
0.0268555
-0.0579834
-0.114441
-0.145569
-0.193787
-0.150146
-0.107727
-0.0811768
-0.124512
-0.178528
-0.176392
-0.0286865
0.133972
0.206299
0.153198
0.0375366
-0.0643921
-0.112915
-0.0714111
0.0283813
0.093689
0.0479126
-0.123291
-0.223694
-0.255737
-0.209045
-0.103455
-0.0915527
-0.127869
-0.143433
-0.133362
-0.105286
-0.131836
-0.148315
-0.0942993
0.1297
0.291748
0.281067
0.190735
0.148315
0.0765991
-0.0289917
-0.0680542
-0.010376
0.00640869
-0.0485229
-0.038147
0.0576782
0.140686
0.192871
0.265808
0.331726
0.33783
0.274353
0.135193
-0.0421143
-0.183411
-0.256653
-0.277405
-0.261841
-0.176086
-0.0811768
-0.00274658
0.0430298
0.0640869
0.0616455
0.0177002
-0.0390625
-0.0842285
-0.0558472
0.00488281
-0.0259399
-0.0656128
-0.117798
-0.202026
-0.321655
-0.404053
-0.264587
-0.0109863
0.160522
0.209961
0.1828
0.163269
0.249023
0.397644
0.512085
0.537415
0.52124
0.245056
-0.0421143
-0.0714111
-0.00976562
0.0201416
0.0341797
0.0997925
0.212097
0.21637
0.230103
0.220947
0.0805664
-0.0100708
0.106506
0.0723267
-0.0985718
-0.0976562
-0.020752
0.0366211
0.0680542
0.0531006
-0.0842285
-0.269165
-0.28595
-0.219116
-0.141602
-0.0430298
-0.00366211
-0.0653076
-0.123901
-0.154724
-0.0881958
-0.0518799
-0.0588989
-0.0894165
-0.172729
-0.252991
-0.264587
-0.286255
-0.313416
-0.325012
-0.253906
-0.184937
-0.0930786
-0.00427246
0.0653076
0.196533
0.218506
0.123596
0.0701904
0.0778198
0.131226
0.15686
0.229492
0.250854
0.217285
0.141907
0.0680542
0.055542
0.00946045
-0.0869751
-0.140991
-0.158997
-0.160522
-0.105896
0.0610352
0.204163
0.292053
0.318909
0.27832
0.184937
0.184326
0.284119
0.340271
0.285339
0.273438
0.25116
0.0866699
0.0628662
0.140991
0.0595093
-0.0543213
-0.168457
-0.196838
-0.0921631
0.00396729
0.0485229
0.0765991
0.0521851
-0.0698853
-0.254517
-0.449524
-0.526733
-0.550842
-0.491638
-0.343628
-0.162659
0
0.0653076
-0.00946045
-0.150757
-0.172729
-0.141907
-0.0756836
0.072937
0.148315
0.202942
0.187988
0.208435
0.283508
0.35614
0.453186
0.511169
0.429382
0.181274
-0.0830078
-0.28717
-0.384216
-0.381165
-0.328979
-0.319824
-0.251465
-0.156555
-0.0814819
0.0183105
0.122986
0.134277
0.0717163
0.0521851
0.062561
0.0759888
0.0665283
0.101624
0.0949097
0.0650024
0.0106812
0.000305176
-0.0323486
-0.0485229
-0.0427246
-0.0378418
0.00335693
0.0201416
0.0119019
0.0354004
-0.0204468
-0.0500488
-0.0158691
0.06073
0.136108
0.173035
0.120239
0.055542
0.00457764
-0.0354004
-0.0299072
0.0268555
0.184021
0.381165
0.551758
0.637512
0.652161
0.601807
0.371399
0.133667
-0.155029
-0.383911
-0.38208
-0.415955
-0.488892
-0.428772
-0.231628
-0.104065
0.0012207
0.119019
0.145874
0.0769043
-0.111084
-0.25177
-0.3125
-0.277405
-0.210876
-0.202942
-0.174866
-0.12207
-0.0778198
-0.0152588
-0.0198364
-0.0366211
0.00213623
-0.00946045
-0.0363159
-0.106812
-0.150452
-0.129395
-0.103455
-0.0473022
0.0524902
0.108337
0.122986
0.110474
0.124817
0.137024
0.136719
0.177307
0.187988
0.211182
0.187683
0.128479
0.0875854
0.06073
-0.0271606
-0.0946045
-0.102539
-0.0369263
0.0427246
0.0866699
0.090332
0.125427
0.140076
0.10376
-0.00976562
-0.0662231
-0.0875854
-0.0720215
-0.128174
-0.170593
-0.0656128
0.162964
0.374756
0.514526
0.639954
0.628662
0.405273
0.302429
0.250854
0.0302124
-0.282288
-0.403748
-0.305481
-0.112305
-0.045166
-0.141907
-0.27771
-0.353699
-0.350647
-0.349426
-0.323486
-0.292358
-0.220642
-0.0439453
0.137634
0.232849
0.172424
0.0335693
-0.142822
-0.24231
-0.229492
-0.190125
-0.143127
-0.0430298
0.0448608
0.102234
0.13855
0.113525
0.083313
0.00518799
-0.0100708
0.0332642
0.0680542
0.0408936
-0.0198364
-0.0665283
-0.0888062
-0.0967407
-0.143127
-0.260925
-0.250854
-0.09552
-0.0393677
0.0125122
0.0875854
0.163879
0.246887
0.293884
0.274658
0.19928
0.116272
0.101624
0.0756836
-0.0390625
-0.148621
-0.156555
-0.122681
-0.0662231
0.0518799
0.166931
0.155945
0.105896
0.0546265
-0.0271606
-0.0662231
-0.0299072
0.057373
0.144043
0.345764
0.49408
0.446167
0.377197
0.181885
-0.0634766
-0.185852
-0.27771
-0.334473
-0.340576
-0.283508
-0.217896
-0.110779
0.0283813
0.110168
0.0863647
-0.0378418
-0.115051
-0.13092
-0.115051
-0.0631714
0.000305176
-0.00396729
-0.0198364
-0.0244141
-0.0125122
-0.00274658
-0.0372314
-0.0592041
-0.0506592
-0.0909424
-0.0924683
-0.0143433
0.00274658
-0.0546265
-0.071106
-0.0906372
-0.115051
-0.152588
-0.189514
-0.206909
-0.235291
-0.209045
-0.127563
-0.0238037
0.0909424
0.162964
0.16571
0.15686
0.15564
0.207214
0.193787
0.111084
-0.0570679
-0.156555
-0.0765991
0.0686646
0.16449
0.286255
0.384827
0.327759
0.280151
0.239258
0.224304
0.238953
0.204773
-0.0372314
-0.275574
-0.393677
-0.22583
0.0509644
0.386658
0.58075
0.515442
0.189514
-0.164185
-0.473938
-0.576477
-0.430603
-0.291443
-0.228577
-0.197144
-0.202026
-0.220947
-0.2005
-0.0881958
0.00274658
0.0582886
0.0881958
0.102844
0.0140381
-0.062561
-0.010376
0.00579834
-0.0283813
-0.135803
-0.159912
-0.125122
-0.105286
-0.0271606
0.06073
0.0302124
-0.022583
-0.0283813
-0.015564
0.0396729
0.0924683
0.14679
0.143127
0.0668335
0.00793457
-0.0238037
-0.00701904
0
0.00274658
-0.0271606
-0.093689
-0.143433
-0.114441
-0.0289917
0.0238037
0.0674438
0.0485229
0.0125122
0.0265503
0.0686646
0.0961304
0.0582886
0.0308228
0.00335693
-0.00183105
0.00488281
0.0631714
0.130615
0.0808716
-0.0448608
-0.0628662
-0.0613403
-0.0656128
0.0424194
0.17334
0.295105
0.403442
0.38269
0.252686
0.166016
0.138245
0.0125122
-0.224304
-0.362854
-0.340576
-0.235901
-0.15686
-0.0823975
0.0341797
0.245361
0.30304
0.343628
0.274658
-0.00946045
-0.259399
-0.349121
-0.328674
-0.205994
-0.0402832
0.015564
0.03479
0.0735474
0.13031
0.150757
0.126648
0.0369263
-0.0415039
-0.0518799
0.000915527
0.0106812
-0.00305176
-0.0189209
-0.0363159
-0.0616455
-0.0146484
0.0161743
0.0354004
0.0476074
0.0897217
0.0750732
-0.0314331
-0.152893
-0.203857
-0.26062
-0.249329
-0.0765991
-0.0164795
-0.0704956
-0.115356
-0.0338745
0.151978
0.326843
0.513306
0.653992
0.593262
0.274353
-0.0906372
-0.293884
-0.386963
-0.395203
-0.348816
-0.270081
-0.205383
-0.200195
-0.162659
-0.108337
-0.102539
-0.115662
-0.103455
-0.0183105
0.093689
0.184326
0.214844
0.204773
0.12146
0.0964355
0.106812
0.122681
0.194092
0.298462
0.370178
0.336304
0.279236
0.25177
0.191345
0.0900269
-0.0119019
-0.0817871
-0.0686646
-0.0259399
-0.0332642
-0.0637817
-0.149231
-0.189819
-0.149536
-0.0686646
-0.00244141
0.0427246
0.0326538
-0.0469971
-0.181274
-0.22644
-0.166931
-0.160522
-0.238037
-0.274353
-0.191956
-0.0323486
0.128174
0.156555
0.118103
0.0704956
-0.0262451
-0.0396729
0.0180054
0.0567627
0.088501
0.0875854
0.039978
-0.0692749
-0.104065
-0.105286
-0.0564575
0.00793457
0.0390625
0.0466919
0.0228882
-0.038147
-0.0894165
-0.0897217
-0.0686646
0.0192261
0.0979614
0.0784302
0.0302124
-0.0137329
0.0112915
0.102234
0.132141
0.0552368
0.00640869
-0.0387573
-0.0769043
-0.0588989
-0.0161743
0.0115967
-0.00701904
0.00305176
0.0598145
0.136108
0.170898
0.144043
0.124512
0.0262451
-0.161743
-0.261536
-0.273132
-0.266724
-0.205994
-0.13092
-0.020752
0.0622559
0.0772095
0.0866699
0.213013
0.431824
0.63324
0.704346
0.687256
0.549316
0.39093
0.187378
0.0827026
0.0262451
-0.0756836
-0.329285
-0.466614
-0.423889
-0.400085
-0.348206
-0.301208
-0.353394
-0.357361
-0.273132
-0.192261
-0.0918579
0.0299072
0.067749
0.0906372
0.157471
0.1474
0.0543213
-0.0756836
-0.180054
-0.252991
-0.21698
-0.106506
-0.0158691
0.0808716
0.204468
0.179138
0.0515747
-0.0088501
-0.00793457
0.00762939
-0.0488281
-0.0991821
-0.0863647
-0.0454712
-0.00305176
0.0418091
0.0756836
0.0982666
0.111084
0.105286
0.0271606
0.0100708
-0.0183105
-0.0631714
-0.133972
-0.188599
-0.192566
-0.147705
-0.0942993
0.00701904
0.0717163
0.117493
0.192566
0.247803
0.333557
0.427246
0.427856
0.270081
0.050354
-0.125122
-0.144653
-0.0311279
0.175476
0.28717
0.153198
-0.0671387
-0.180359
-0.235291
-0.277405
-0.264587
-0.279236
-0.346985
-0.415039
-0.379944
-0.325012
-0.250244
-0.0820923
0.115051
0.209961
0.335693
0.395203
0.320129
0.202637
0.149231
0.124817
0.0286865
-0.0814819
-0.130005
-0.119019
-0.0906372
0.0360107
0.177002
0.179138
0.132141
0.0814819
0.0369263
0.0286865
-0.0180054
-0.0283813
0.0454712
0.110168
0.148926
0.143738
0.0582886
-0.0262451
-0.0436401
-0.00518799
-0.0280762
-0.0509644
-0.0579834
-0.0430298
-0.0515747
-0.0549316
-0.0234985
0.0442505
0.142822
0.11261
-0.0585938
-0.241089
-0.333557
-0.297852
-0.169678
-0.0305176
0.133057
0.255737
0.231323
0.131836
0.00366211
-0.110474
-0.198669
-0.219421
-0.0717163
0.142517
0.302429
0.389404
0.429382
0.40741
0.214539
-0.108643
-0.376892
-0.538635
-0.550232
-0.365295
-0.0897217
0.0680542
0.083313
0.00946045
0.0292969
0.0427246
-0.0195312
-0.0613403
-0.0881958
-0.0799561
-0.0704956
0.0430298
0.191956
0.276489
0.299683
0.263062
0.175171
0.107727
0.0296021
-0.116882
-0.0668335
0.0170898
0.0628662
0.0363159
0.00579834
-0.0125122
-0.10376
-0.255127
-0.285645
-0.176697
-0.0628662
0.0775146
0.27771
0.401001
0.392456
0.309753
0.175171
0.050354
0.0131226
-0.0198364
-0.0476074
-0.065918
-0.0344849
0.000305176
0.0228882
0.146484
0.213928
0.183105
0.105896
0.0778198
0.137329
0.160828
0.214539
0.180664
0.0576782
-0.0439453
-0.0643921
-0.00274658
0.0289917
-0.0418091
-0.19104
-0.303345
-0.429382
-0.484924
-0.4422
-0.315247
-0.151978
0.0427246
0.187683
0.138855
0.0674438
0.0701904
0.109558
0.133362
0.0540161
-0.0985718
-0.249023
-0.368347
-0.286865
-0.127258
0.108948
0.441895
0.610657
0.495605
0.239258
0.0195312
-0.0939941
-0.0875854
-0.0622559
-0.103455
-0.158997
-0.157776
-0.123596
-0.0561523
-0.0170898
0.03479
0.127563
0.293274
0.355835
0.325012
0.227966
0.126343
0.020752
0
-0.0549316
-0.162048
-0.245972
-0.205994
-0.197754
-0.223083
-0.171509
-0.0744629
-0.0128174
0.055542
0.104675
0.10437
0.0741577
0.0540161
0.0457764
0.0408936
0.0619507
0.0473022
0.00213623
-0.0332642
-0.0714111
-0.112
-0.117188
-0.0802612
-0.0418091
-0.0198364
-0.00793457
-0.0515747
-0.0952148
-0.160217
-0.232849
-0.318604
-0.393372
-0.350647
-0.267639
-0.201416
-0.0704956
-0.010376
-0.0698853
-0.112915
-0.062561
0.0793457
0.225525
0.360107
0.467834
0.408936
0.358582
0.323486
0.276794
0.19165
0.0515747
-0.0991821
-0.116272
-0.0949097
-0.0970459
-0.0888062
-0.0827026
0.00457764
0.105286
0.188904
0.267944
0.36377
0.364075
0.304871
0.237122
0.172729
0.0686646
-0.0588989
-0.123291
-0.0650024
-0.0088501
0.00946045
-0.071106
-0.132141
-0.211182
-0.249634
-0.256958
-0.255432
-0.272522
-0.246277
-0.14679
-0.0308228
0.10498
0.238037
0.308228
0.210571
0.0485229
-0.0570679
-0.161743
-0.224609
-0.238342
-0.253601
-0.271301
-0.300903
-0.312805
-0.248718
-0.108643
0.0289917
0.15564
0.175476
0.163574
0.107117
0.0552368
0.0402832
0.0524902
0.0402832
0.010376
-0.0241089
-0.0247192
-0.0244141
-0.0723267
-0.0320435
0.0430298
0.0479126
-0.0314331
-0.116272
-0.154724
-0.122375
-0.0231934
0.0857544
0.202332
0.292664
0.281677
0.207214
0.122986
0.137329
0.067749
0.0247192
0.193481
0.416565
0.556946
0.570374
0.378723
0.0756836
-0.193176
-0.263977
-0.193481
-0.13855
-0.170593
-0.171204
-0.107727
-0.0463867
-0.0280762
-0.144043
-0.296936
-0.393372
-0.319824
-0.213623
-0.107117
0.0442505
0.0479126
-0.0485229
-0.17395
-0.212402
-0.155029
-0.0726318
-0.0128174
0.0271606
0.0308228
0.078125
0.106201
0.0961304
0.126648
0.196838
0.179443
0.0799561
-0.0891113
-0.206604
-0.3125
-0.248413
-0.017395
0.177612
0.279236
0.274353
0.203247
0.083313
-0.0280762
-0.065918
-0.00610352
-0.0012207
-0.0613403
-0.151672
-0.135803
-0.0576782
-0.00579834
-0.0482178
-0.0158691
-0.00152588
0.00946045
0.0222778
0.0564575
0.0518799
0.00366211
-0.0723267
-0.109558
-0.085144
-0.0982666
-0.0238037
0.107727
0.230103
0.341187
0.450439
0.41748
0.340271
0.143433
-0.137024
-0.376282
-0.366516
-0.209656
-0.0363159
0.0549316
0.105286
0.12207
-0.0299072
-0.133057
-0.101929
-0.0491333
-0.0302124
-0.0442505
-0.00396729
0.0442505
0.078125
0.170898
0.129089
0.027771
-0.0286865
0.0012207
0.0140381
0.0112915
0.0357056
0.067749
-0.0109863
-0.0747681
-0.072937
-0.090332
-0.12146
-0.128479
-0.0363159
0.0595093
0.150146
0.244446
0.319519
0.330811
0.246277
0.0350952
-0.125427
-0.21637
-0.217896
-0.100098
0.0765991
0.13916
0.0653076
0.0183105
-0.00610352
-0.0686646
-0.128784
-0.151367
-0.144348
-0.210876
-0.205383
-0.0994873
-0.0274658
0.0231934
0.00762939
-0.0308228
-0.0375366
-0.0137329
0.00793457
-0.0436401
0
0.0836182
0.160828
0.183411
0.170288
0.1651
0.163879
0.11261
0.0793457
0.0491333
0.015564
-0.00976562
-0.0863647
-0.0570679
0.0515747
0.107727
0.118408
0.178223
0.257263
0.286865
0.262756
0.235291
0.0222778
-0.242615
-0.262756
-0.143738
-0.0106812
0.0701904
0.112305
0.0875854
0.0814819
0.0149536
-0.112915
-0.132141
-0.0906372
-0.00915527
0.00946045
-0.0332642
-0.0637817
-0.0967407
-0.128479
-0.180969
-0.231018
-0.2771
-0.401917
-0.497742
-0.488281
-0.446167
-0.227661
0.140381
0.335083
0.352478
0.37323
0.446167
0.519714
0.504761
0.460815
0.392151
0.341797
0.249023
0.148621
0.110168
0.00976562
-0.117188
-0.215149
-0.233154
-0.200195
-0.0894165
-0.0292969
0.0152588
-0.00274658
-0.0772095
-0.0680542
0
0.14801
0.198059
0.0598145
-0.0588989
-0.0601196
-0.0396729
-0.0680542
-0.0686646
-0.0363159
-0.00762939
-0.0421143
-0.0598145
-0.0256348
-0.0543213
-0.107727
-0.177307
-0.173035
-0.126038
-0.112
-0.0973511
-0.0460815
-0.0146484
-0.0357056
-0.0799561
-0.168457
-0.154724
-0.00366211
0.0512695
-0.0112915
-0.062561
-0.0500488
0.0378418
0.138855
0.123901
0.0860596
0.0549316
0.109558
0.175476
0.252991
0.379639
0.456848
0.458679
0.456543
0.35553
0.135193
-0.0909424
-0.218811
-0.265503
-0.341797
-0.385437
-0.363464
-0.252686
-0.224915
-0.155334
-0.0994873
-0.0149536
0.0234985
-0.0131226
0.022583
0.123901
0.161743
0.181274
0.166626
0.0643921
-0.0637817
-0.180664
-0.290222
-0.321655
-0.215149
-0.14801
-0.043335
0.17395
0.307007
0.347595
0.309753
0.22522
0.0949097
-0.043335
-0.146484
-0.139465
-0.0863647
-0.0445557
-0.032959
-0.0177002
-0.00671387
-0.0238037
-0.0283813
-0.0152588
0.0152588
0.0286865
0.0839233
0.0979614
0.0320435
-0.0146484
0.0384521
0.136414
0.370789
0.495911
0.435486
0.291138
0.151367
0.0552368
-0.0747681
-0.128174
-0.0704956
-0.0308228
-0.0616455
-0.114746
-0.141602
-0.193787
-0.233765
-0.201721
-0.143738
-0.137024
-0.0778198
0.00335693
0.0274658
0.0326538
-0.0180054
-0.0775146
-0.128479
-0.117493
-0.0326538
0.00335693
0.00946045
0.0491333
0.102539
0.0656128
0.0311279
0.0445557
0.0119019
-0.0680542
-0.102844
-0.123596
-0.103455
0.0112915
0.0296021
-0.032959
-0.127869
-0.221863
-0.276184
-0.249329
-0.127258
0.131836
0.407104
0.629883
0.662842
0.610657
0.501709
0.248718
0.0598145
-0.0631714
-0.220642
-0.4599
-0.559387
-0.409241
-0.212708
-0.0375366
0.122375
0.239563
0.349426
0.32959
0.184631
-0.0170898
-0.228271
-0.362854
-0.334778
-0.219421
-0.196228
-0.204163
-0.197144
-0.186157
-0.200195
-0.131531
-0.0521851
0.0964355
0.200195
0.185547
0.171814
0.172424
0.149231
0.0958252
-0.0344849
-0.177002
-0.278625
-0.314636
-0.218811
-0.00732422
0.249023
0.500793
0.651855
0.632629
0.392761
0.072937
-0.201416
-0.381165
-0.409241
-0.292969
-0.162964
-0.144958
-0.0915527
0.0247192
0.194397
0.306702
0.299683
0.238342
0.151062
-0.0354004
-0.0796509
-0.0360107
-0.0354004
-0.131226
-0.163269
-0.107727
-0.0747681
-0.0588989
-0.027771
-0.00762939
-0.0152588
-0.0265503
-0.0299072
0
0.00671387
0.00946045
0.0216675
-0.0634766
-0.142517
-0.144958
-0.0595093
-0.0198364
-0.100403
-0.167542
-0.170898
-0.0735474
-0.0088501
0.0671387
0.0735474
0.0845337
0.0372314
-0.0857544
-0.189819
-0.240784
-0.252991
-0.211792
-0.127563
0.0430298
0.243835
0.330811
0.326233
0.317688
0.298157
0.158691
-0.0323486
-0.0964355
-0.06073
0.0341797
0.134583
0.223389
0.421448
0.549622
0.457458
0.351562
0.332031
0.143127
-0.249023
-0.423279
-0.357361
-0.202942
-0.0567627
0.0790405
0.0949097
0.0100708
-0.0396729
-0.0338745
-0.0100708
0.00823975
0
-0.100403
-0.154114
-0.193787
-0.172729
-0.0796509
0.0192261
0.015564
-0.043335
-0.020752
0.0393677
0.0305176
0.0378418
0.0616455
0.0402832
0.0515747
0.017395
-0.0634766
-0.137024
-0.135193
-0.102539
-0.0402832
0.00396729
-0.0610352
-0.0772095
0.00579834
0.0628662
0.0942993
0.00274658
-0.106812
-0.11261
-0.141602
-0.141907
-0.102844
0.0271606
0.239563
0.458679
0.56427
0.47821
0.293884
0.0680542
-0.166626
-0.292053
-0.231323
-0.188599
-0.138855
-0.0848389
-0.0149536
-0.0201416
0.00732422
0.0170898
-0.0674438
-0.243225
-0.371704
-0.3302
-0.221252
0.0350952
0.247803
0.32074
0.292969
0.163269
0.00915527
-0.050354
-0.0817871
-0.0506592
0.0387573
0.0875854
0.0976562
0.0704956
0.0170898
-0.0354004
-0.0531006
-0.020752
0.0466919
0.00335693
-0.110474
-0.133362
-0.124512
-0.187683
-0.240173
-0.179443
-0.104675
0.0482178
0.191345
0.303955
0.309448
0.235596
0.109253
-0.0344849
-0.0424194
0.0180054
0.139771
0.361633
0.37262
0.197449
0.146484
0.137634
0.0973511
-0.0271606
-0.03479
0.0427246
-0.00793457
-0.0564575
-0.0534058
-0.0723267
-0.126648
-0.151062
-0.132141
-0.101929
-0.0256348
0.017395
0.0238037
0.0582886
0.0180054
-0.062561
-0.0967407
-0.0909424
-0.0924683
-0.0537109
-0.00152588
0.00427246
0.0115967
0.0430298
0.0466919
0.06073
0.0469971
0.0570679
-0.012207
-0.101624
-0.180969
-0.245972
-0.262756
-0.177917
-0.128479
-0.119629
-0.10376
-0.00701904
0.0543213
0.128784
0.233459
0.327759
0.343323
0.278625
0.238037
0.183411
0.196228
0.146484
0.0119019
-0.0949097
-0.130615
-0.0802612
0.00701904
0.197449
0.313416
0.217896
0.0314331
-0.100708
-0.181885
-0.231323
-0.200806
-0.14679
-0.0918579
-0.0616455
-0.0534058
-0.0906372
-0.159607
-0.205383
-0.172119
-0.121765
-0.144653
-0.0891113
-0.00396729
0.0582886
0.117798
0.225525
0.266113
0.237122
0.0982666
0.0183105
-0.00518799
-0.0320435
-0.020752
-0.00701904
0.0280762
0.0228882
-0.00854492
-0.00793457
-0.057373
-0.201721
-0.206909
-0.0640869
0.0915527
0.209961
0.310364
0.364685
0.371399
0.292969
0.150452
0.0335693
-0.0201416
-0.142212
-0.239563
-0.250244
-0.215759
-0.185852
-0.111389
-0.0344849
-0.0445557
-0.0836182
-0.149231
-0.183716
-0.202637
-0.238037
-0.240784
-0.145569
-0.0402832
0.145874
0.231018
0.272217
0.256653
0.220032
0.127258
0.045166
0.0314331
0.0247192
-0.020752
-0.110168
-0.168152
-0.186462
-0.203247
-0.228577
-0.213928
-0.154724
-0.0619507
-0.0405884
-0.0964355
-0.0924683
-0.0946045
-0.0643921
0.0186157
0.0793457
0.135803
0.174561
0.200195
0.187988
0.135498
0.0598145
-0.00213623
0.000305176
0.0128174
0.071106
0.0567627
0.0302124
-0.0442505
-0.134583
-0.195923
-0.180054
-0.100403
-0.0119019
0.0793457
0.180359
0.267639
0.323181
0.162964
-0.0299072
-0.139771
-0.152588
-0.141296
-0.0857544
-0.0396729
-0.0595093
-0.0570679
-0.0222778
0.0521851
0.122681
0.188904
0.190735
0.0964355
0.0323486
0.0424194
0.0708008
0.0747681
0.109253
0.0909424
0.00762939
-0.0924683
-0.14679
-0.20874
-0.286255
-0.235901
-0.13855
-0.0686646
0.0299072
0.0726318
0.133972
0.25238
0.236511
0.131531
0.055542
-0.0244141
-0.101929
-0.166321
-0.17395
-0.154724
-0.0683594
0.0259399
0.105896
0.181274
0.219421
0.184021
0.163269
0.148621
0.174255
0.116272
-0.00518799
-0.137634
-0.270081
-0.395203
-0.43396
-0.381775
-0.197144
-0.0320435
-0.0540161
-0.0765991
0.0650024
0.190125
0.256348
0.255737
0.258484
0.258179
0.213318
0.100708
-0.00610352
0.0680542
0.250549
0.298462
0.114136
-0.0460815
-0.043335
-0.022583
-0.112915
-0.201721
-0.188293
-0.151367
-0.0906372
-0.0369263
0.000610352
0.0738525
0.0497437
-0.0463867
-0.0982666
-0.0296021
0.0222778
0.015564
-0.00610352
0.00457764
0.0119019
0.0378418
0.102234
0.195618
0.215149
0.210571
0.230408
0.144958
-0.111084
-0.203857
-0.116882
-0.0427246
-0.0360107
-0.0753784
-0.115662
-0.136414
-0.232544
-0.26886
-0.205994
-0.151672
-0.108948
0.00213623
0.113831
0.164185
0.186768
0.205078
0.240173
0.130005
-0.0445557
-0.169067
-0.231323
-0.255127
-0.229797
-0.143738
-0.010376
0.126038
0.187073
0.1474
0.110168
0.0961304
0.157776
0.224304
0.261536
0.254517
0.249634
0.180664
0.0183105
-0.176392
-0.285034
-0.317078
-0.279236
-0.134277
0.143127
0.440979
0.466003
0.346069
0.282288
0.228882
0.0973511
-0.107727
-0.19165
-0.168152
-0.124512
-0.149231
-0.172729
-0.178223
-0.137939
-0.0808716
0.0180054
0.144043
0.178223
0.187378
0.131836
-0.0744629
-0.203857
-0.187378
-0.163879
-0.146179
-0.180359
-0.187988
-0.17334
-0.154114
-0.0823975
0.0289917
0.0546265
0.015564
0.0280762
0.0341797
0.0735474
0.173645
0.246887
0.256653
0.19043
0.222778
0.191345
-0.0338745
-0.282288
-0.343933
-0.248108
-0.17334
-0.065918
0.0698853
0.153198
0.0881958
-0.0772095
-0.198059
-0.27832
-0.316772
-0.292664
-0.147095
0.0875854
0.290222
0.423584
0.432434
0.344543
0.262756
0.244751
0.263062
0.237732
0.115356
-0.00701904
-0.0259399
0.0454712
0.0674438
0.022583
-0.0100708
-0.117188
-0.239563
-0.269775
-0.202332
-0.133362
-0.112915
-0.107117
-0.107117
-0.118713
-0.0942993
-0.0143433
0.0219727
0.020752
-0.0271606
-0.0317383
-0.017395
0.043335
0.0836182
0.184937
0.265198
0.281677
0.263367
0.169373
0.112305
0.072937
0.062561
-0.0390625
-0.16449
-0.288086
-0.26062
-0.178528
-0.0689697
0.101013
0.238037
0.210571
0.140686
0.126648
0.0927734
0.00213623
-0.108948
-0.20813
-0.197449
-0.124207
-0.0692749
-0.0460815
-0.0540161
-0.0369263
0
0.00915527
0.0219727
0.045166
0.0296021
0.00610352
0.0320435
0.0595093
0.0588989
-0.0158691
-0.137024
-0.197754
-0.205383
-0.185242
-0.0708008
0.0735474
0.201111
0.265198
0.239868
0.262756
0.254822
0.181274
0.249329
0.250549
0.115662
-0.0787354
-0.193481
-0.212097
-0.194092
-0.153503
-0.0869751
0.00305176
0.0814819
0.200806
0.28656
0.217285
0.12146
0.0271606
-0.0900269
-0.15564
-0.223694
-0.254822
-0.21759
-0.14801
-0.117493
-0.14679
-0.171814
-0.134277
-0.123596
-0.0708008
-0.0149536
-0.0491333
-0.0592041
-0.0445557
-0.050354
-0.106201
-0.110168
-0.108337
-0.0970459
-0.0744629
-0.0424194
0.0305176
0.0473022
0.0482178
0.0213623
-0.0201416
-0.0204468
-0.00366211
0.012207
0.0292969
0.0888062
0.145874
0.219116
0.18219
0.114441
0.0765991
0.0515747
0.0213623
-0.0241089
-0.00457764
0.0778198
0.098877
0.119629
0.185547
0.223083
0.0473022
-0.0924683
-0.0445557
0.00823975
0.0415039
0.0564575
0.105286
0.202637
0.221863
0.173035
0.0811768
0
-0.06073
-0.107422
-0.138245
-0.0967407
-0.0686646
-0.0311279
0.0256348
0.0579834
-0.0134277
-0.180359
-0.20874
-0.138245
0.0283813
0.221863
0.377197
0.345154
0.198059
0.0357056
-0.0634766
-0.152283
-0.158691
-0.119934
-0.0637817
-0.0216675
0.0375366
0.0839233
0.0366211
-0.109558
-0.243225
-0.32959
-0.290833
-0.223389
-0.113831
-0.0756836
-0.0448608
0.00152588
-0.00213623
-0.00152588
0.00854492
-0.0793457
-0.0915527
-0.0241089
0.0326538
0.0970459
0.175781
0.183105
0.156555
0.128174
0.0842285
0.0622559
0.127258
0.206909
0.250549
0.279541
0.250854
0.140076
0.017395
-0.0695801
-0.085144
-0.017395
0.0543213
-0.00946045
-0.101013
-0.119934
-0.203857
-0.166016
-0.0564575
-0.0128174
-0.0338745
-0.085144
-0.122986
-0.107422
-0.0643921
-0.0286865
-0.0143433
0.0268555
0.050354
0.0964355
0.173035
0.202026
0.307922
0.350647
0.328369
0.322876
0.174255
0.00915527
-0.108643
-0.149231
-0.149536
-0.221863
-0.331116
-0.306702
-0.256042
-0.217896
-0.15686
-0.118713
-0.106812
-0.101318
-0.0701904
-0.078125
-0.0497437
-0.0582886
-0.045166
-0.0152588
0.0579834
0.0369263
0
-0.0167847
-0.0521851
-0.118103
-0.177612
-0.216064
-0.191956
-0.115051
0.0415039
0.275574
0.409546
0.419617
0.455933
0.36499
0.188904
-0.0338745
-0.200195
-0.229492
-0.177612
-0.0350952
0.107422
0.125427
0.0924683
0.0701904
0.0485229
-0.0119019
-0.0637817
-0.107727
-0.0863647
0.0164795
0.100403
0.132751
0.158997
0.107117
-0.00915527
-0.0198364
0.0183105
0.0427246
0.0714111
0.0915527
0.0149536
-0.0942993
-0.0860596
0.0265503
0.11322
0.0894165
0.116272
0.172119
0.187073
0.140381
0.0756836
0.0808716
0.0820923
-0.00793457
-0.140991
-0.139771
-0.13031
-0.153503
-0.098877
0.114746
0.260925
0.231323
0.159607
0.181885
0.233154
0.253296
0.232239
0.149231
-0.00305176
-0.0775146
-0.108948
-0.159302
-0.14679
-0.0952148
-0.0866699
-0.13092
-0.252075
-0.347595
-0.39032
-0.424805
-0.371399
-0.241394
-0.115051
0.0100708
0.0854492
0.116272
0.0894165
0.00701904
-0.0088501
0.0805664
0.185852
0.16571
0.141296
0.100403
0.012207
-0.0598145
-0.0427246
-0.0158691
0.00152588
0.0274658
0.0689697
0.0875854
0.055542
0.010376
-0.00579834
-0.0378418
-0.13092
-0.303955
-0.4422
-0.525208
-0.564575
-0.447693
-0.17395
0.101929
0.278625
0.289307
0.201416
0.129089
0.137634
0.23407
0.231628
0.173645
0.13092
0.0314331
-0.0460815
-0.0405884
-0.032959
-0.038147
-0.0808716
-0.106506
-0.136719
-0.192566
-0.178833
-0.0704956
0.0720215
0.162964
0.201416
0.263367
0.316467
0.223999
0.208435
0.219727
0.235291
0.346985
0.461731
0.562439
0.52948
0.502625
0.438538
0.263367
0.0708008
-0.163269
-0.415649
-0.534668
-0.539246
-0.484619
-0.345459
-0.280457
-0.249023
-0.178528
-0.1651
-0.191345
-0.130615
-0.0167847
0.0012207
-0.0152588
0.0497437
0.202026
0.252686
0.17395
0.06073
-0.0564575
-0.104675
-0.0296021
0.0177002
0.0177002
-0.00732422
-0.00366211
0.0231934
0.0967407
0.207214
0.308533
0.3302
0.0723267
-0.24292
-0.398865
-0.547791
-0.524597
-0.384521
-0.160828
-0.0201416
0.0286865
0.0341797
0.0967407
0.152588
0.151367
0.143738
0.117188
0.0439453
-0.0912476
-0.196533
-0.187073
-0.154419
-0.0769043
-0.00549316
0.0134277
0.017395
0.010376
0.0314331
0.0442505
0.0540161
0.0720215
0.0588989
0.0335693
0.00640869
-0.032959
-0.0546265
-0.0326538
0.000610352
0.0296021
0.0537109
0.144958
0.242615
0.309448
0.351257
0.32074
0.204163
0.00335693
-0.184326
-0.280457
-0.245972
-0.120544
0.045166
0.161438
0.256042
0.25177
0.159607
-0.0396729
-0.270996
-0.369263
-0.350342
-0.30426
-0.27832
-0.207214
-0.215454
-0.301208
-0.247803
-0.100403
0.0244141
0.0772095
0.0720215
-0.00427246
-0.0213623
0.0720215
0.212097
0.385742
0.526428
0.472412
0.336304
0.140076
-0.12146
-0.241699
-0.195618
-0.100708
-0.102844
-0.117493
-0.071106
-0.137024
-0.211792
-0.222473
-0.152588
-0.0735474
-0.0564575
-0.0280762
0.0784302
0.192566
0.184631
0.0509644
-0.0161743
-0.032959
-0.0534058
-0.0561523
-0.0296021
-0.010376
0.00946045
0.020752
-0.00213623
-0.0152588
-0.0167847
0.00793457
0.0323486
-0.0204468
-0.0900269
-0.0772095
-0.0149536
0.0531006
0.111084
0.192871
0.25177
0.213623
0.0613403
-0.0967407
-0.162659
-0.14679
-0.0616455
0.0143433
0.106812
0.25177
0.289917
0.226135
0.1651
0.207214
0.250244
0.212708
0.107117
-0.0158691
-0.134277
-0.223694
-0.244446
-0.231018
-0.176392
-0.0982666
-0.0866699
-0.152588
-0.156555
-0.0732422
0.00183105
0.0408936
0.0930786
0.0930786
0.0762939
0.127258
0.188904
0.133057
0.0531006
0.0332642
-0.0177002
-0.107422
-0.0213623
0.0848389
0.134888
0.132446
0.0585938
-0.0463867
-0.157471
-0.242004
-0.235596
-0.158691
-0.0881958
-0.0665283
-0.0448608
-0.00823975
-0.00427246
-0.0387573
-0.0900269
-0.120239
-0.0796509
0.00274658
0.0192261
0.0518799
0.137634
0.202026
0.144043
0.0784302
-0.0146484
-0.0933838
-0.110474
-0.0515747
0.0570679
0.126343
0.106506
0.020752
-0.0689697
-0.143738
-0.178833
-0.115356
-0.0646973
-0.0115967
0.045166
0.106506
0.140991
0.123901
0.0787354
0.0292969
0.00457764
-0.0320435
-0.00213623
0.0411987
0.133972
0.227966
0.263672
0.204163
0.159607
0.158081
0.154114
0.0973511
-0.0119019
-0.0939941
-0.120544
-0.110168
-0.0888062
-0.00793457
0.0915527
0.0848389
0.0436401
0.0335693
-0.0152588
-0.127258
-0.148315
-0.0537109
0.0213623
0.0689697
0.0469971
-0.0869751
-0.23407
-0.255432
-0.247803
-0.209656
-0.0637817
-0.050354
-0.158386
-0.171509
-0.155334
-0.121155
-0.022583
0.0634766
0.127563
0.159607
0.140076
0.113831
0.144348
0.222473
0.264587
0.25177
0.172729
0.0622559
-0.0238037
-0.185242
-0.244446
-0.195618
-0.105286
-0.0726318
0.0369263
0.210571
0.289612
0.256348
0.214844
0.209351
0.143738
0.00579834
0.000305176
0.0735474
0.0805664
0.0167847
-0.0613403
-0.181885
-0.236511
-0.255432
-0.24231
-0.160828
-0.0454712
0.0488281
0.0823975
0.0946045
0.0796509
0.0485229
-0.0134277
-0.102234
-0.137024
-0.135803
-0.0958252
-0.055542
-0.0308228
0.0430298
0.09552
0.0814819
0.0732422
0.0860596
0.104675
0.116882
0.0469971
-0.0405884
-0.14679
-0.134583
-0.0296021
0.0152588
0.0106812
0.0213623
-0.0112915
-0.0460815
-0.0653076
0.0527954
0.276489
0.475159
0.571594
0.590515
0.421753
0.000305176
-0.390625
-0.510559
-0.37262
-0.140076
0.0958252
0.249939
0.260925
0.140076
-0.0299072
-0.202942
-0.281067
-0.335083
-0.379333
-0.366516
-0.306396
-0.241699
-0.114136
0.0524902
0.140991
0.104675
0.0701904
0.0674438
0.0473022
0.0790405
0.129089
0.0985718
0.0671387
0.0531006
0.0674438
0.0595093
0.0912476
0.107727
0.105896
0.0814819
0.0515747
-0.00976562
-0.065918
-0.0680542
-0.0601196
-0.0372314
-0.0259399
0.0109863
0.0576782
0.0997925
0.0878906
0.0192261
-0.038147
-0.0378418
-0.0405884
-0.0198364
0.0473022
0.0949097
0.0485229
-0.0646973
-0.143738
-0.171204
-0.117188
0.0241089
0.141602
0.174866
0.155334
0.00457764
-0.0787354
-0.0161743
0.0146484
0.0473022
0.0588989
0.115356
0.185852
0.202332
0.112
0.0949097
0.120239
0.0906372
0
-0.150146
-0.297546
-0.366211
-0.338745
-0.209351
0.0204468
0.133972
0.16449
0.250854
0.227966
0.104675
-0.0244141
-0.0692749
-0.0778198
-0.109253
-0.12146
-0.110474
-0.0631714
-0.0219727
0.0357056
0.119934
0.151367
0.122681
0.123901
0.199585
0.18158
0.0839233
-0.0112915
-0.0247192
-0.0772095
-0.0726318
-0.0338745
-0.0692749
-0.0912476
-0.126038
-0.146179
-0.160828
-0.0909424
0.0527954
0.168457
0.264587
0.228577
0.050354
-0.117188
-0.216675
-0.266418
-0.141296
0.00518799
0.138855
0.195923
0.169067
0.12085
0.0704956
0.0411987
0.0253296
0
-0.0119019
0.0805664
0.323792
0.461426
0.410767
0.255127
0.0982666
-0.0924683
-0.108643
-0.0125122
0.0848389
-0.0335693
-0.134888
-0.162659
-0.166016
-0.128479
-0.106506
-0.106506
-0.135193
-0.171509
-0.194397
-0.183105
-0.150452
-0.0894165
-0.0125122
0.0759888
0.179138
0.227966
0.187073
0.155029
0.178528
0.138855
0.126648
0.152893
0.148926
0.0192261
-0.121155
-0.156555
-0.150452
-0.172119
-0.177307
-0.0674438
0.0289917
-0.0320435
-0.0924683
-0.0674438
-0.0567627
-0.0982666
-0.09552
-0.0897217
-0.0891113
-0.11322
-0.116882
-0.13092
-0.119934
-0.0402832
0.0588989
0.0964355
0.0546265
0.0289917
0.0738525
0.188599
0.215454
0.233765
0.267029
0.202637
0.109558
-0.0320435
-0.130005
-0.152588
-0.127258
-0.0738525
-0.00366211
0.0274658
0.0466919
0.0653076
-0.0289917
-0.116577
-0.0875854
-0.0558472
-0.0396729
0.0814819
0.177917
0.19043
0.177002
0.209656
0.222168
0.247498
0.2771
0.306396
0.397339
0.2948
-0.072937
-0.340271
-0.397339
-0.412598
-0.379639
-0.255127
-0.101624
-0.0802612
-0.122681
-0.138855
-0.108337
-0.0473022
-0.0109863
-0.0390625
-0.0418091
-0.0119019
-0.0204468
-0.00732422
0.00854492
-0.0405884
-0.0863647
-0.06073
-0.0357056
-0.0344849
-0.0222778
0.0366211
0.0964355
0.154114
0.186462
0.155945
0.0463867
-0.0317383
0.0192261
0.039978
-0.00366211
-0.0906372
-0.1297
-0.128479
-0.0979614
-0.0509644
0.0280762
0.101013
0.133667
0.188599
0.224304
0.197144
0.183105
0.0979614
0.00579834
-0.0814819
-0.128479
-0.0463867
0.111694
0.214233
0.224915
0.194397
0.112
-0.0216675
-0.107117
-0.137329
-0.212708
-0.274353
-0.271301
-0.286865
-0.344238
-0.300598
-0.193176
-0.100403
-0.00366211
0.0692749
0.116882
0.131836
0.210876
0.275574
0.245667
0.207214
0.175171
0.245361
0.31189
0.184021
0.0192261
-0.0354004
-0.0665283
-0.0305176
0.0640869
0.132446
0.192566
0.132751
0.0476074
-0.0747681
-0.247498
-0.255127
-0.229797
-0.213318
-0.181885
-0.107727
-0.0369263
-0.078125
-0.132446
-0.0512695
0.0204468
0.0311279
0.0643921
0.0735474
0.0576782
0.0189209
-0.00274658
0.0228882
0.0567627
0.0247192
-0.0314331
-0.0491333
-0.0650024
-0.0570679
0.015564
0.0317383
0.032959
0.0540161
0.0338745
-0.0881958
-0.17334
-0.245361
-0.247192
-0.181885
-0.110474
-0.0726318
-0.0161743
0.0204468
0.0671387
0.0982666
0.1297
0.162964
0.146179
0.0994873
0.0466919
0.0466919
0.197754
0.421753
0.523071
0.52002
0.434875
0.158081
-0.138245
-0.196533
-0.0784302
-0.0393677
-0.0909424
-0.173645
-0.270691
-0.409546
-0.415955
-0.316162
-0.184021
-0.0488281
0.0350952
0.125122
0.137634
0.0473022
-0.06073
-0.109863
-0.0610352
0.045166
0.148926
0.147095
0.0772095
0.0360107
-0.0396729
-0.25177
-0.406494
-0.278931
-0.119324
-0.015564
0.106812
0.112915
0.0759888
0.00854492
-0.0259399
0.0247192
0.0839233
0.124512
0.101624
0.0692749
0.105896
0.0946045
0.0289917
-0.00671387
0.0689697
0.136414
0.090332
0.124207
0.184631
0.167236
0.0595093
-0.0265503
0.00762939
0.0543213
0.0515747
0.0750732
0.0613403
0.0259399
0.0769043
0.105286
0.15564
0.231323
0.318909
0.252075
0.0790405
-0.0183105
-0.125122
-0.216675
-0.152893
-0.0796509
-0.0894165
-0.167847
-0.195923
-0.167847
-0.116882
-0.0570679
-0.0119019
0.0088501
0.0338745
0.0311279
0.0112915
-0.0125122
-0.0732422
-0.11322
-0.132446
-0.126343
-0.0500488
0.0152588
0.0149536
-0.0460815
-0.0894165
-0.115051
-0.129395
-0.111084
-0.0836182
-0.0448608
0.00183105
0.0521851
0.0408936
0.0253296
0.0320435
0.0601196
0.0793457
0.124512
0.153198
0.165405
0.1474
0.144043
0.120239
0.105591
0.043335
0.0189209
-0.062561
-0.223083
-0.404968
-0.529785
-0.525513
-0.404053
-0.19928
0.0561523
0.166931
0.18219
0.229492
0.223083
0.245361
0.238953
0.177612
0.109558
0.0488281
-0.0354004
-0.0588989
-0.0616455
-0.0610352
-0.038147
0.00579834
0.062561
0.102234
0.254211
0.4599
0.530396
0.458374
0.220337
0.0680542
-0.0897217
-0.260925
-0.318298
-0.282288
-0.215454
-0.132751
-0.0305176
0.0378418
0.0823975
0.0924683
0.0991821
0.032959
-0.0979614
-0.185852
-0.171204
-0.105286
-0.0482178
-0.0552368
-0.0479126
-0.00183105
0.050354
0.101013
0.118408
-0.0112915
-0.178528
-0.223694
-0.109253
0.000305176
0.00152588
-0.0445557
-0.100098
-0.0744629
0.0012207
0.108948
0.198669
0.236511
0.248413
0.180969
0.071106
-0.0579834
-0.168152
-0.212708
-0.194702
-0.0869751
0.0561523
0.0817871
0.0598145
0.0387573
0.0247192
0.0012207
0.0390625
0.101929
0.113525
-0.0317383
-0.158997
-0.173645
-0.107117
-0.0201416
0.0170898
-0.00244141
-0.0158691
-0.0604248
-0.136108
-0.159302
-0.152893
-0.184937
-0.183411
-0.140686
-0.0845337
-0.0479126
-0.00732422
0.00396729
-0.0350952
-0.0378418
0.0189209
0.109253
0.189209
0.21637
0.207214
0.180969
0.141602
0.162354
0.136108
0.125122
0.0247192
-0.166321
-0.301819
-0.359802
-0.398254
-0.301514
-0.184631
-0.11261
-0.0460815
0.0543213
0.167542
0.332031
0.401306
0.293274
0.215759
0.223083
0.211487
0.169373
0.0970459
-0.00335693
-0.109558
-0.164185
-0.193787
-0.202637
-0.198364
-0.206909
-0.100098
0.123291
0.298157
0.319214
0.285339
0.126648
-0.101013
-0.244751
-0.270691
-0.249634
-0.224304
-0.12085
0.0521851
0.212708
0.272827
0.272522
0.200195
0.126648
0.0976562
0.0521851
0.0201416
0.0323486
0.0924683
0.160522
0.235291
0.264587
0.21759
0.116577
0.0415039
0.0186157
-0.0134277
-0.0411987
-0.0881958
-0.107117
-0.165405
-0.274048
-0.36499
-0.426636
-0.423584
-0.349731
-0.28656
-0.271301
-0.216675
-0.085144
0.0735474
0.211182
0.272217
0.251465
0.19989
0.10376
0.0656128
0.0427246
0.0271606
0.00152588
0.0311279
0.148926
0.22522
0.200195
0.20813
0.216064
0.285034
0.28656
0.264587
0.194702
0.0634766
0.00396729
-0.067749
-0.149841
-0.229187
-0.274658
-0.293579
-0.289307
-0.245667
-0.130615
0.0350952
0.19165
0.345154
0.426636
0.377197
0.201416
-0.0125122
-0.258484
-0.400696
-0.361633
-0.194092
-0.156555
-0.153198
-0.108032
-0.0210571
0.137939
0.241394
0.26123
0.194397
0.0708008
-0.0708008
-0.147705
-0.157776
-0.0140381
0.0927734
0.106506
0.114441
0.0552368
-0.0558472
-0.115662
-0.0643921
0.0302124
0.122375
0.143433
0.151672
0.162048
0.157776
0.198059
0.229797
0.222473
0.154724
0.0292969
-0.093689
-0.203552
-0.26947
-0.273743
-0.234375
-0.137024
-0.093689
-0.0549316
0.0161743
0.0515747
0.0527954
0.0701904
0.112305
0.116882
0.0756836
0.00274658
-0.0305176
-0.0375366
-0.0372314
-0.0228882
-0.0146484
0.0253296
0.102234
0.111084
0.0933838
0.0802612
0.0369263
0.0289917
0.0311279
0.00152588
-0.0222778
0.0384521
0.0952148
0.0640869
0.0100708
-0.0479126
-0.133057
-0.148926
-0.144958
-0.1297
-0.0552368
-0.0537109
-0.114441
-0.129395
-0.195007
-0.248718
-0.176392
-0.0296021
0.0949097
0.232849
0.332031
0.296021
0.289917
0.295715
0.247803
0.183411
0.110779
0.0506592
0.03479
0.144043
0.218506
0.210266
0.221558
0.163269
0.0289917
-0.143127
-0.192566
-0.281067
-0.352783
-0.34729
-0.359192
-0.298157
-0.286865
-0.222473
-0.102234
0.0305176
0.160217
0.177307
0.145264
0.149231
0.17395
0.214233
0.149536
0.0820923
0.0497437
0.0354004
-0.0128174
-0.0665283
-0.098877
-0.133667
-0.150146
-0.169067
-0.135498
-0.100708
-0.0418091
0.0439453
0.0445557
0.00274658
-0.0100708
-0.00579834
-0.0228882
-0.0454712
-0.0253296
-0.0106812
-0.00701904
-0.00854492
0.020752
0.0610352
0.0619507
0.0323486
0.00793457
-0.0491333
-0.0656128
-0.0131226
0.0845337
0.183105
0.218506
0.193176
0.0717163
-0.0906372
-0.144958
0.00946045
0.215759
0.343933
0.445251
0.491333
0.325623
0.0698853
-0.11261
-0.145264
-0.132751
-0.14801
-0.15564
-0.177002
-0.202942
-0.166016
-0.168762
-0.212402
-0.21637
-0.143127
-0.107117
-0.0894165
-0.0656128
-0.00946045
0.0640869
0.125732
0.129395
0.0918579
0.0271606
-0.14801
-0.279236
-0.21637
-0.0674438
0.0158691
0.0631714
0.163879
0.177917
0.140076
0.0088501
-0.106201
-0.170898
-0.204468
-0.212708
-0.185852
-0.124207
0.0408936
0.164795
0.194702
0.204163
0.148926
0.0552368
-0.0338745
-0.0613403
-0.00793457
0.0640869
0.0836182
0.062561
0.0332642
-0.045166
-0.149231
-0.149841
-0.0912476
0.0579834
0.265198
0.394897
0.371704
0.290222
0.103455
-0.0613403
-0.158386
-0.287781
-0.315857
-0.287781
-0.265198
-0.157166
0.00396729
0.135498
0.247803
0.326538
0.384216
0.462036
0.368652
0.174561
0.108337
0.0817871
0.137024
0.213928
0.203857
0.163269
0.0283813
-0.0869751
-0.235596
-0.339966
-0.374756
-0.3302
-0.21759
-0.200195
-0.251465
-0.283508
-0.287476
-0.26825
-0.248108
-0.114441
-0.0177002
0.0485229
0.0436401
-0.00457764
-0.00152588
-0.0271606
-0.0534058
-0.0476074
-0.0430298
-0.0491333
-0.0299072
0.0396729
0.0732422
0.0866699
0.0338745
0.00549316
-0.00915527
-0.0811768
-0.159912
-0.161438
-0.12085
0.0012207
0.0787354
0.137634
0.123901
0.0393677
-0.00640869
0.0131226
-0.022583
-0.0772095
-0.0875854
-0.0796509
-0.0506592
-0.0390625
0.00213623
0.100708
0.177612
0.143433
0.123901
0.147095
0.200195
0.188904
0.149231
0.0213623
-0.142822
-0.309143
-0.333252
-0.229797
-0.00244141
0.214539
0.366516
0.474243
0.563354
0.558777
0.559082
0.617065
0.574951
0.396118
0.195923
0.0320435
-0.118713
-0.164185
-0.195312
-0.256653
-0.303345
-0.331726
-0.274048
-0.203552
-0.189514
-0.171814
-0.123291
-0.0820923
-0.0137329
0.0244141
-0.0280762
-0.09552
-0.154724
-0.132141
-0.115967
-0.0619507
0.032959
0.0427246
0
-0.0637817
-0.168762
-0.30304
-0.361938
-0.318604
-0.213013
-0.027771
0.0912476
0.148315
0.161133
0.113525
0.0778198
0.0509644
0.0305176
-0.00457764
-0.0302124
-0.0283813
-0.027771
-0.00488281
-0.00549316
-0.00915527
-0.0109863
-0.0180054
-0.0088501
-0.00762939
-0.0595093
-0.0421143
-0.0427246
-0.0366211
0.027771
0.12207
0.124207
0.0979614
0.0363159
-0.0863647
-0.180969
-0.0558472
0.140991
0.172119
0.137634
0.186462
0.210266
0.180969
0.224304
0.267029
0.267029
0.177917
0.0488281
-0.0442505
-0.0897217
-0.114746
-0.127258
-0.134888
-0.147095
-0.145569
-0.108948
-0.065918
-0.00671387
0.0256348
-0.0106812
-0.067749
-0.106812
-0.151978
-0.179443
-0.153503
-0.0900269
-0.0430298
0.0231934
0.0643921
0.0598145
0.0262451
-0.00183105
0.0256348
0.0320435
-0.00610352
-0.0424194
-0.00457764
0.0457764
0.0549316
0.0582886
-0.00488281
-0.13031
-0.22644
-0.206604
-0.162354
-0.154419
-0.193176
-0.185852
-0.173035
-0.110474
-0.0201416
0.202942
0.441589
0.473633
0.413818
0.345459
0.187683
0.00335693
0.0012207
0.0778198
0.117188
0.149536
0.160828
-0.0283813
-0.232544
-0.231323
-0.140076
-0.0222778
0.0961304
0.170898
0.213318
0.196533
0.0973511
0.00946045
-0.00793457
0.00732422
0.000305176
0.0402832
0.0765991
0.085144
0.0549316
-0.0323486
-0.153503
-0.246277
-0.24231
-0.183716
-0.107727
-0.0115967
0.0717163
0.0430298
-0.00396729
-0.0588989
-0.132751
-0.206604
-0.240173
-0.219727
-0.139465
0.0238037
0.155334
0.26886
0.335083
0.334473
0.272522
0.139465
0.0088501
-0.0387573
-0.0311279
-0.0125122
-0.00823975
0.00305176
0.0234985
-0.00610352
-0.0787354
-0.0900269
-0.112305
-0.107727
-0.00518799
0.111694
0.17395
0.20813
0.235901
0.154114
0.0115967
-0.0488281
-0.0979614
-0.14679
-0.160217
-0.125427
-0.0500488
0.0341797
0.0915527
0.0463867
-0.0588989
-0.171814
-0.291748
-0.309143
-0.205078
-0.0888062
-0.0338745
0.00335693
0.0134277
-0.0177002
-0.0341797
-0.0714111
-0.0830078
-0.110779
-0.128174
-0.045166
0.116272
0.239868
0.187683
0.169067
0.111389
0.0253296
-0.0775146
-0.0439453
0.072937
0.154724
0.214539
0.231018
0.196533
0.1474
0.151672
0.19165
0.236511
0.20874
0.0939941
-0.0769043
-0.137939
-0.183411
-0.14679
-0.0115967
0.115356
0.28656
0.422363
0.362244
0.162354
0.0866699
-0.00213623
-0.11322
-0.18158
-0.20752
-0.233765
-0.204773
-0.0808716
-0.0338745
-0.0521851
-0.104065
-0.0695801
-0.0238037
0.0241089
0.0479126
0.0189209
0.00457764
-0.0338745
-0.09552
-0.139465
-0.141907
-0.134277
-0.0942993
-0.0878906
-0.139771
-0.177002
-0.1651
-0.0500488
0.107117
0.235291
0.243835
0.124207
-0.0143433
-0.0332642
-0.00396729
0.0164795
0
-0.0112915
-0.0302124
-0.0588989
-0.0476074
-0.0296021
-0.0228882
0.0430298
0.0604248
0.0466919
0.0268555
0.00976562
0.032959
0.00518799
-0.00244141
0.00152588
-0.0198364
-0.0372314
-0.0561523
-0.0881958
-0.108948
-0.0698853
-0.0912476
-0.180664
-0.142212
-0.027771
0.00274658
0.0238037
0.159912
0.246582
0.223083
0.231628
0.259399
0.202942
0.0735474
0.0836182
0.0897217
0.0564575
0.0668335
0.0476074
0.0106812
0.0296021
0.114136
0.176697
0.229187
0.167236
-0.0186157
-0.198364
-0.262451
-0.189819
-0.0665283
0.0234985
0.0775146
0.16449
0.202026
0.197449
0.230713
0.272217
0.295105
0.204773
0.169373
0.162354
0.0714111
-0.0900269
-0.184326
-0.226746
-0.232849
-0.241089
-0.257568
-0.235291
-0.187988
-0.115967
-0.072937
-0.108948
-0.108032
-0.0820923
-0.124207
-0.180664
-0.141602
-0.0183105
0.101013
0.103149
-0.00183105
-0.085144
-0.133667
-0.172424
-0.180054
-0.133362
-0.0457764
0.0799561
0.210571
0.20874
0.179749
0.154419
0.134583
0.138245
0.148621
0.0619507
-0.00152588
0.0909424
0.153198
0.0558472
-0.0881958
-0.12207
-0.090332
-0.0485229
-0.0250244
0.0088501
0.0253296
0.0784302
0.143738
0.248718
0.259094
0.141602
0.0289917
-0.0109863
-0.108948
-0.210266
-0.204773
-0.183411
-0.155029
-0.114136
-0.115051
-0.129089
-0.123901
-0.071106
-0.0234985
-0.0482178
-0.0283813
-0.0198364
0.0234985
0.112915
0.174255
0.218811
0.20813
0.169373
0.151672
0.126038
0.098877
0.0872803
0.0946045
0.107422
0.101624
0.0216675
-0.0228882
-0.078125
-0.111389
-0.114746
-0.166931
-0.246582
-0.317688
-0.263977
-0.115356
-0.0393677
0.020752
0.147705
0.255432
0.262451
0.204163
0.171204
0.122986
0.0738525
0.0619507
0.0997925
0.083313
0.0411987
-0.0115967
-0.0222778
0.0497437
0.187683
0.32135
0.440063
0.474548
0.388184
0.234375
-0.0448608
-0.261536
-0.25177
-0.213623
-0.107422
-0.101929
-0.137634
-0.124817
-0.102844
-0.122375
-0.15564
-0.134888
-0.0686646
-0.00579834
0.0167847
-0.0119019
-0.12207
-0.259399
-0.289001
-0.256958
-0.218811
-0.161438
-0.0717163
-0.0158691
-0.00274658
-0.0152588
-0.00579834
0.00915527
-0.0088501
0.00671387
0.0320435
0.0634766
0.0982666
0.117188
0.137329
0.12207
0.102234
0.0668335
0.000915527
-0.110474
-0.115662
-0.0738525
-0.0491333
0.00396729
0.0512695
0.015564
-0.0308228
-0.106506
-0.118103
-0.108032
-0.110168
-0.0686646
-0.0448608
-0.0411987
-0.0372314
0.0137329
0.165405
0.25238
0.244446
0.244751
0.215454
0.153809
0.0817871
0.0592041
0.0588989
0.103455
0.161133
0.239563
0.292969
0.407104
0.56488
0.626526
0.496521
0.268555
-0.0296021
-0.353699
-0.525818
-0.549622
-0.386353
-0.176086
-0.0842285
0.010376
0.0357056
0.0601196
0.0338745
0.0323486
0.0933838
0.159912
0.239563
0.259399
0.18158
-0.00274658
-0.171814
-0.255432
-0.325012
-0.314331
-0.289001
-0.244446
-0.206299
-0.183716
-0.163879
-0.187073
-0.167542
-0.119629
-0.065918
-0.0198364
0.0375366
0.0540161
0.0741577
0.118103
0.115356
0.0881958
0.0509644
0.0201416
0.0421143
0.0839233
0.116272
0.179138
0.174866
0.0765991
-0.0088501
-0.0500488
-0.119629
-0.143127
-0.154114
-0.0982666
-0.0198364
0.032959
0.116882
0.155029
0.168457
0.115051
0.0228882
-0.0979614
-0.160522
-0.171814
-0.189819
-0.190125
-0.215454
-0.223694
-0.227966
-0.213013
-0.132751
-0.0131226
0.0497437
0.152283
0.295105
0.340271
0.303955
0.232239
0.136108
0.0653076
0.0720215
0.0579834
0.0369263
-0.00396729
-0.0631714
-0.0836182
-0.0128174
0.0408936
0.0939941
0.255737
0.435486
0.528564
0.400085
0.0973511
-0.167847
-0.307312
-0.372009
-0.353699
-0.156555
-0.0418091
-0.0744629
-0.113525
-0.132751
-0.119019
-0.0473022
-0.0244141
0.00671387
0.0305176
0.0759888
0.0784302
0.103455
0.122681
0.110779
0.0375366
-0.0296021
-0.0741577
-0.055542
-0.0582886
-0.0827026
-0.0411987
0.0491333
0.102234
0.140686
0.117188
0.0723267
0.00610352
-0.0543213
-0.045166
-0.0619507
-0.120544
-0.180969
-0.298157
-0.498352
-0.516052
-0.4245
-0.261536
-0.130615
-0.0112915
0.148621
0.162659
0.0970459
0.121155
0.192261
0.243225
0.232849
0.196533
0.260925
0.284119
0.209045
0.0692749
-0.0479126
-0.140381
-0.145569
-0.0964355
-0.0985718
-0.101318
-0.0241089
0.0509644
0.0753784
0.105896
0.104675
0.103455
0.139465
0.0894165
0.0595093
0.0436401
0.0558472
0.0595093
-0.0177002
-0.11322
-0.181885
-0.166321
-0.138855
-0.150146
-0.137634
-0.0897217
-0.0750732
-0.0564575
-0.00518799
0.0253296
0.0531006
0.10498
0.143127
0.151672
0.126038
0.0576782
0.0427246
0.0466919
0.0793457
0.078125
0.0378418
-0.0326538
-0.117798
-0.122986
-0.155029
-0.163879
-0.14679
-0.10498
-0.111389
-0.123596
-0.11322
-0.126343
-0.0790405
0.0283813
0.0894165
0.0613403
0.101013
0.106812
0.104675
0.0720215
0.0143433
-0.0250244
-0.0418091
-0.06073
-0.0317383
0.0375366
0.0509644
0
-0.0308228
0.104065
0.169678
0.101624
0.0369263
0.0604248
0.0637817
-0.00213623
-0.0576782
-0.0857544
-0.0558472
-0.0546265
-0.09552
-0.209656
-0.292053
-0.272827
-0.191345
-0.121155
-0.0405884
-0.00518799
-0.017395
0.00183105
0.0268555
0.085144
0.138245
0.161438
0.185242
0.189209
0.180969
0.19104
0.214233
0.230408
0.245056
0.174866
0.0839233
0.101318
0.09552
0.107117
0.131531
0.136414
0.0125122
-0.151978
-0.23468
-0.287476
-0.264893
-0.19043
-0.115051
-0.0802612
-0.078125
-0.083313
-0.00732422
0.045166
-0.0265503
-0.106506
-0.163879
-0.17395
-0.0765991
-0.00427246
0.0100708
-0.0396729
-0.0811768
-0.0311279
0.171204
0.354309
0.386047
0.339661
0.270691
0.112
-0.0991821
-0.195618
-0.219421
-0.195618
-0.184021
-0.190125
-0.188293
-0.191345
-0.157471
-0.0973511
-0.0292969
0.00335693
-0.0180054
-0.0427246
-0.0283813
0.0473022
0.0628662
0.039978
0.0106812
-0.0518799
-0.0970459
-0.121765
-0.126953
-0.0961304
-0.078125
-0.0250244
0.0588989
0.115051
0.169373
0.219421
0.244751
0.243225
0.247803
0.220947
0.106201
-0.0588989
-0.153503
-0.220337
-0.231323
-0.11322
-0.00671387
0.0524902
0.017395
0.0106812
0.00701904
-0.0372314
-0.0378418
0.0271606
0.032959
-0.062561
-0.0109863
0.126038
0.19104
0.189514
0.197144
0.249329
0.237122
0.102539
-0.0234985
-0.155029
-0.327454
-0.439148
-0.420227
-0.309753
-0.151978
0.00549316
0.133057
0.183716
0.137634
0.0634766
0.0305176
-0.0088501
-0.0790405
-0.104675
-0.0631714
-0.0152588
0.0210571
0.0494385
0.0579834
0.0582886
0.0466919
0.017395
-0.0143433
-0.0219727
-0.00213623
0.0286865
0.0485229
0.0341797
0.0228882
0.022583
-0.0146484
-0.0256348
-0.00183105
0.0250244
0.0595093
0.0906372
0.0753784
0.0515747
0.0448608
0.0769043
0.0668335
0.0271606
-0.0335693
-0.0952148
-0.0952148
-0.0415039
0
0.0119019
0.0180054
0.0189209
-0.0149536
-0.0854492
-0.0296021
0.0125122
-0.0494385
-0.11322
-0.117493
-0.107117
-0.0772095
-0.0350952
0.0109863
0.112
0.194092
0.248718
0.331726
0.361938
0.259705
0.0708008
-0.0946045
-0.102234
-0.0274658
0.0149536
0.0262451
0.0198364
-0.0579834
-0.0891113
-0.0491333
0.0128174
0.012207
0.0146484
0.06073
0.109558
0.0894165
0.0335693
0.0460815
0.105286
0.113525
0.0311279
-0.0543213
-0.133972
-0.215149
-0.265198
-0.247498
-0.124817
-0.06073
-0.0909424
-0.0964355
-0.067749
-0.067749
0.00823975
0.100098
0.107727
0.0759888
0.0320435
-0.0692749
-0.124817
-0.0845337
0.0170898
0.093689
0.160217
0.162048
0.0619507
-0.0613403
-0.0653076
-0.0515747
-0.0466919
-0.0894165
-0.0741577
-0.00579834
0.101624
0.223694
0.296631
0.265808
0.168762
0.185852
0.230103
0.241089
0.221863
0.125427
-0.0247192
-0.078125
-0.0357056
0.0283813
0.06073
0.0527954
0.0274658
-0.0811768
-0.137634
-0.104065
-0.038147
-0.0482178
-0.0881958
-0.141602
-0.180054
-0.209045
-0.101318
0.0128174
0.0839233
0.122986
0.143433
0.135193
0.0698853
-0.0100708
0.0378418
0.0881958
0.0662231
0.105286
0.21698
0.187378
0.0161743
-0.0869751
-0.14679
-0.238953
-0.296631
-0.204773
-0.124817
-0.0537109
0.0616455
0.0125122
-0.137024
-0.224915
-0.244446
-0.21698
-0.148621
-0.0802612
0.020752
0.0973511
0.0881958
0.00793457
-0.153503
-0.249023
-0.353699
-0.419922
-0.393982
-0.209045
-0.0643921
-0.00183105
0.00671387
0.110474
0.247803
0.280151
0.179138
0.0915527
0.133362
0.140076
0.100098
0.0799561
0.0823975
0.13092
0.185242
0.223694
0.186462
0.153503
0.109558
0.0863647
0.0595093
-0.0796509
-0.120239
-0.0708008
-0.0509644
-0.0500488
-0.0570679
-0.0546265
-0.0274658
0.00152588
-0.00701904
0.123901
0.294189
0.392456
0.332947
0.256653
0.178528
0.0817871
0.0228882
0.114136
0.271301
0.443115
0.478516
0.389709
0.174255
-0.0256348
-0.205383
-0.39917
-0.449829
-0.333252
-0.169067
-0.0140381
0.118103
0.210266
0.0598145
-0.115967
-0.19043
-0.27771
-0.292969
-0.216064
-0.139771
-0.158997
-0.237122
-0.345154
-0.488281
-0.516052
-0.372314
0.00854492
0.42572
0.713806
0.757751
0.663452
0.481262
0.169067
-0.0378418
-0.127869
-0.126038
-0.116882
-0.0930786
-0.0961304
-0.0796509
-0.0537109
-0.0805664
-0.177307
-0.211487
-0.247498
-0.316467
-0.315247
-0.238342
-0.190125
-0.137939
-0.0671387
-0.050354
0.00671387
0.0506592
0.0646973
0.0460815
0.027771
0.0256348
0.038147
0.0445557
-0.0231934
-0.0747681
-0.0796509
-0.0653076
-0.0769043
-0.0619507
-0.00549316
0.0515747
0.0704956
0.062561
0.062561
0.0280762
0.0418091
0.0598145
0.0646973
0.072937
0.0790405
0.0735474
0.0650024
0.0540161
0.0646973
0.0531006
0.0408936
0.0427246
0.038147
0.0396729
0.0216675
-0.00152588
-0.0643921
-0.129395
-0.131226
-0.0912476
-0.0317383
0.0354004
0.151062
0.163574
0.100098
0.0628662
0.0881958
0.124207
0.122375
0.108032
0.071106
0.174561
0.268555
0.302429
0.300598
0.205994
0.0942993
0.017395
-0.0640869
-0.21637
-0.289917
-0.241699
-0.201111
-0.206604
-0.0650024
0.195312
0.285034
0.258484
0.183411
0.170288
0.135193
0.06073
-0.0820923
-0.193176
-0.229187
-0.215759
-0.213013
-0.21637
-0.203247
-0.113831
-0.0314331
-0.0134277
-0.00762939
0.0115967
0
-0.0558472
-0.113525
-0.128479
-0.0918579
-0.078125
-0.0656128
-0.0256348
-0.0213623
0.0109863
0.020752
-0.00335693
-0.0402832
-0.0582886
-0.109253
-0.150757
-0.145874
-0.114746
-0.101013
-0.0497437
0.0967407
0.245972
0.368347
0.43457
0.334473
0.150452
-0.0265503
-0.15686
-0.205994
-0.17395
-0.0991821
-0.071106
-0.0421143
-0.102539
-0.181274
-0.21637
-0.186157
-0.0305176
0.221863
0.466003
0.693054
0.818481
0.852966
0.743713
0.49408
0.206604
0.0137329
-0.0680542
-0.0561523
-0.141296
-0.346069
-0.379028
-0.322266
-0.215149
-0.195007
-0.218201
-0.267029
-0.290527
-0.299988
-0.234375
-0.09552
0.043335
0.23468
0.383606
0.448914
0.419006
0.249634
0.0189209
-0.0778198
-0.0643921
-0.0424194
-0.0546265
-0.103149
