-0.071106
-0.0756836
-0.0927734
-0.0704956
0.0796509
0.197144
0.273132
0.250854
0.158081
0.0692749
0.00671387
-0.0234985
0.00427246
0.00457764
0.00152588
0.0726318
0.218201
0.357666
0.384216
0.267639
0.112305
-0.0405884
-0.166626
-0.128784
0.0695801
0.211182
0.32196
0.522461
0.752563
0.701599
0.185242
-0.102539
-0.15564
-0.215454
-0.246887
-0.260315
-0.21637
-0.163574
-0.0112915
0.19989
0.310364
0.329285
0.208435
0.0115967
-0.0320435
0.0149536
-0.00366211
-0.0128174
0
0.142822
0.31189
0.271912
0.169678
0.0857544
-0.0473022
-0.117798
-0.188599
-0.226746
-0.21637
-0.203247
-0.188599
-0.14801
-0.147095
-0.119629
-0.0354004
0.237427
0.332642
0.26062
0.218811
0.119934
-0.0119019
-0.115051
-0.15625
-0.14679
-0.104065
-0.0411987
0.0341797
0.131836
0.180969
0.149231
0.0860596
0.0283813
0.0296021
0.06073
0.100403
0.141907
0.0912476
-0.00457764
-0.0457764
-0.0698853
-0.0692749
0.0598145
0.185242
0.280457
0.265808
0.210266
0.196533
0.24231
0.289917
0.279541
0.235901
0.116272
0
-0.0119019
0.0234985
0.0454712
0.0158691
-0.0512695
-0.0946045
-0.11322
-0.108337
0.0280762
0.311279
0.600281
0.68634
0.533142
0.187988
0.0192261
0.0231934
0.0692749
0.198059
0.245056
0.19165
0.204773
0.214539
0.19104
0.137634
-0.106812
-0.195923
-0.174866
-0.25116
-0.291138
-0.268555
-0.206299
-0.206604
-0.188904
-0.141296
-0.10437
-0.071106
-0.0100708
0.0643921
0.180969
0.229187
0.225525
0.329285
0.664978
0.935059
1.02753
0.857239
0.328674
-0.195312
-0.53009
-0.596313
-0.549011
-0.360413
-0.169678
-0.0646973
0.00732422
0.162048
0.232544
0.156555
0.0582886
0.0402832
0.00762939
0.0427246
0.0448608
-0.102539
-0.169373
-0.198059
-0.219421
-0.201111
-0.166931
-0.0814819
-0.0112915
-0.0494385
-0.140381
-0.263672
-0.314941
-0.287476
-0.216675
-0.0875854
0.0997925
0.202332
0.163574
0.0985718
0.0881958
0.0665283
0.0646973
0.0662231
0.0790405
0.151367
0.170898
0.216064
0.470276
0.606689
0.4599
0.3479
0.283508
0.0637817
-0.196533
-0.227661
-0.083313
0.0167847
0.0494385
0.0247192
-0.0631714
-0.213928
-0.281982
-0.161133
-0.0405884
-0.0265503
0.0430298
0.192871
0.452271
0.636292
0.470276
-0.0271606
-0.264282
-0.271301
-0.227661
-0.320129
-0.409851
-0.417786
-0.34668
-0.341187
-0.364075
-0.322266
-0.197754
-0.0543213
0.102844
0.162048
0.154724
0.0939941
0.114441
0.0802612
-0.0543213
-0.148621
-0.232849
-0.256653
-0.233459
-0.16449
-0.12146
-0.0531006
0.0378418
0.0570679
0.0296021
-0.0177002
-0.0338745
-0.0454712
-0.0646973
-0.0296021
0.121765
0.252991
0.261841
0.133972
-0.0671387
-0.169067
-0.0827026
0.0823975
0.239258
0.326233
0.386658
0.265808
0.12085
-0.0344849
-0.0534058
-0.0149536
-0.163879
-0.275574
-0.302429
-0.321045
-0.265198
-0.0854492
0.232239
0.448608
0.461121
0.325928
-0.0564575
-0.349426
-0.310364
-0.178833
-0.0439453
0.0314331
0.0012207
-0.0793457
-0.207825
-0.237122
-0.233459
-0.217285
-0.119934
0.00213623
0.0527954
0.0567627
-0.0302124
-0.0799561
0.00579834
0.0595093
0.0177002
-0.0909424
-0.217285
-0.281677
-0.276794
-0.187073
-0.0341797
0.0973511
0.169983
0.136719
0.0643921
0.00213623
-0.00366211
-0.00213623
0.0338745
0.0506592
-0.0390625
0.0228882
0.156555
0.0531006
-0.115356
-0.0997925
0.0753784
0.179138
0.135498
0.038147
-0.00579834
0.0259399
-0.078125
-0.14679
-0.184021
-0.229187
-0.141602
0.0219727
0.144043
0.16449
0.144653
0.0549316
-0.0518799
-0.0112915
0.177002
0.341492
0.401001
0.182495
-0.0314331
-0.0241089
-0.0192261
-0.110168
-0.239258
-0.302124
-0.32074
-0.278015
-0.1828
-0.101013
-0.0888062
-0.110474
-0.126648
-0.126343
-0.13092
-0.131836
-0.057373
-0.0219727
0.0402832
0.123901
0.155945
0.143738
0.10376
0.0906372
0.0671387
0.0396729
0.0418091
-0.00396729
-0.0564575
-0.0982666
-0.0488281
-0.0387573
-0.139771
-0.195312
-0.15686
-0.00488281
0.117188
0.107422
0.0128174
-0.0338745
-0.045166
-0.0473022
-0.0366211
0.0506592
0.0579834
0.0799561
0.187073
0.370483
0.473328
0.411682
0.278625
0.0250244
-0.195618
-0.203552
-0.045166
0.177612
0.346375
0.446472
0.372925
0.158081
-0.0564575
-0.122986
-0.13916
-0.201111
-0.184326
-0.0857544
0.0839233
0.235901
0.282898
0.143127
0.0338745
0.0332642
0.13916
0.144348
0.0595093
-0.083313
-0.220642
-0.303345
-0.276794
-0.214233
-0.172119
-0.203552
-0.244446
-0.222168
-0.251465
-0.302734
-0.322571
-0.266724
-0.195007
-0.166626
-0.123596
0.00915527
0.129395
0.19928
0.135193
0.0421143
0.0186157
0.0482178
0.0723267
-0.00854492
-0.120544
-0.204773
-0.208435
-0.166931
-0.0793457
0.0311279
0.039978
0.0213623
-0.0665283
-0.143738
-0.160828
-0.151978
-0.0958252
0.0787354
0.258789
0.377808
0.464783
0.536804
0.458679
0.296021
0.132751
0.027771
0.0460815
0.1828
0.266113
0.243835
0.124817
-0.0759888
-0.229797
-0.256653
-0.236511
-0.176392
-0.0689697
-0.0411987
-0.134277
-0.287476
-0.378113
-0.370178
-0.277405
-0.1828
-0.147705
-0.115356
0.00610352
0.144958
0.177307
0.215454
0.148621
0.10498
0.0848389
0.00457764
-0.0598145
-0.0299072
-0.032959
-0.0396729
-0.110168
-0.113525
-0.0857544
-0.0991821
0.012207
0.172729
0.223999
0.111084
0.0244141
0.057373
0.0790405
0.0686646
0.0482178
-0.0158691
-0.0750732
-0.181885
-0.245667
-0.237732
-0.144043
-0.0747681
-0.0717163
-0.128479
-0.185547
-0.19989
-0.187683
-0.105591
-0.00183105
0.0726318
0.120544
0.0680542
0.0445557
0.0543213
0.143433
0.123596
-0.0708008
-0.244446
-0.166321
-0.0494385
0.0518799
0.10498
0.0964355
0.0204468
-0.0479126
-0.0827026
-0.139771
-0.163879
-0.157776
-0.128174
-0.0994873
-0.0714111
-0.0802612
-0.108643
-0.123291
-0.127869
-0.0939941
-0.0274658
0.00396729
0.00854492
0.0149536
0.0164795
-0.00335693
0
-0.038147
-0.0888062
-0.126343
-0.102844
0.0448608
0.240173
0.400391
0.419617
0.318909
0.150146
0.0772095
0.17334
0.341492
0.4953
0.602417
0.401001
0.0357056
-0.255127
-0.404968
-0.403442
-0.339966
-0.259705
-0.129089
0.0427246
0.115967
0.0674438
0.0650024
0.090332
-0.00427246
-0.178833
-0.21759
-0.0866699
0.0158691
-0.00457764
-0.0305176
-0.12146
-0.252991
-0.275574
-0.189209
-0.0762939
0.0247192
0.0942993
0.0177002
-0.0534058
-0.0540161
-0.0421143
-0.098877
-0.109863
0.00671387
0.149231
0.250854
0.249023
0.0845337
-0.0997925
-0.199585
-0.203857
-0.158386
-0.0598145
0.0720215
0.106201
0.0537109
0.0115967
-0.00762939
-0.0686646
0.0152588
0.217285
0.30426
0.180969
-0.020752
-0.274048
-0.329895
-0.157776
0.0167847
0.108643
0.0830078
0.0628662
0.0485229
0.0271606
0.0119019
0.020752
0.00854492
-0.0112915
-0.0323486
-0.13092
-0.0482178
0.0354004
0.121155
0.0704956
-0.0292969
-0.0787354
-0.0537109
0.0448608
0.0723267
-0.0308228
-0.118713
-0.154724
-0.177612
-0.158997
-0.0436401
0.0363159
0.0598145
0.0869751
0.1474
0.266418
0.415344
0.593872
0.809021
0.822144
0.580444
0.121155
-0.257874
-0.447998
-0.494385
-0.374451
-0.23468
-0.200806
-0.219727
-0.22644
-0.152283
0.0320435
0.101013
0.107727
0.045166
-0.158997
-0.352478
-0.411072
-0.389709
-0.328064
-0.160522
0.0482178
0.232849
0.251465
0.16449
0.0418091
-0.123901
-0.230713
-0.281067
-0.213928
-0.0872803
0.0244141
0.0604248
0.0146484
-0.0280762
0.0576782
0.03479
0.0167847
0.0317383
0.0350952
-0.0222778
-0.127563
-0.266113
-0.299988
-0.194397
0.0704956
0.318909
0.377197
0.224304
0.0430298
-0.0598145
-0.0479126
-0.0131226
-0.0430298
-0.0537109
-0.0631714
-0.0860596
-0.071106
0.0146484
0.104675
0.154724
0.187683
0.30304
0.422363
0.431824
0.375366
0.333862
0.273438
0.25238
0.251465
0.0875854
-0.336609
-0.536194
-0.412598
-0.232849
-0.227356
-0.243225
-0.306091
-0.311584
-0.268555
-0.205078
-0.0762939
0.0695801
0.143738
0.12085
0.0311279
-0.0286865
-0.0830078
-0.115967
-0.120544
-0.102539
-0.0942993
-0.0753784
-0.0881958
-0.0201416
0.0402832
0.0613403
0.0857544
0.0930786
0.0842285
0.107117
0.0741577
0.0668335
0.088501
0.078125
0.0143433
-0.0817871
-0.134888
-0.201111
-0.242615
-0.166321
-0.010376
0.101318
0.0930786
0.0875854
0.0839233
0.109558
0.220642
0.365601
0.401306
0.362244
0.267639
0.119019
0.0476074
0.0146484
-0.085144
-0.144348
0.0106812
0.137939
0.0985718
-0.0283813
-0.124512
-0.16449
-0.154114
-0.0949097
-0.0317383
0
0.0289917
0.0152588
0.159912
0.131836
0.125122
0.136414
0.0466919
-0.0183105
-0.0671387
-0.0839233
-0.120544
-0.195312
-0.195312
-0.168762
-0.115356
-0.0393677
0.0515747
0.160828
0.296631
0.380554
0.213318
-0.119629
-0.262756
-0.345764
-0.314636
-0.265503
-0.213318
-0.0918579
0.0286865
0.169067
0.336304
0.372314
0.273132
0.127869
0.0527954
-0.10498
-0.251465
-0.172729
-0.103149
-0.148315
-0.171204
-0.110474
0.00823975
0.183105
0.289917
0.264282
0.194702
0.13092
0.0845337
0.0854492
-0.0131226
-0.222473
-0.453186
-0.416565
-0.24231
-0.067749
0.0912476
0.0619507
-0.0411987
-0.128479
-0.196228
-0.0579834
0.0970459
0.0973511
0.0326538
-0.0784302
-0.210266
-0.240784
-0.218811
-0.202942
-0.130615
-0.00823975
0.116882
0.142517
0.0939941
-0.00366211
-0.21759
-0.443115
-0.455627
-0.361633
-0.13031
0.072937
0.127258
0.0927734
0.168152
0.344849
0.497742
0.59021
0.563354
0.204468
-0.12207
-0.279541
-0.254211
-0.0860596
0.111084
0.238647
0.292969
0.195007
0.0866699
-0.0354004
-0.157776
-0.0213623
0.321045
0.604553
0.649414
0.41687
-0.103149
-0.587463
-0.591736
-0.4422
-0.253601
0.0268555
0.162354
0.00366211
-0.245972
-0.355225
-0.238647
-0.0869751
0.137329
0.243835
0.197449
0.101318
-0.0558472
-0.282288
-0.318909
-0.151367
0.0628662
0.310974
0.55603
0.610352
0.358582
0.141602
-0.00274658
-0.0756836
-0.109863
-0.145569
-0.263977
-0.569763
-0.634155
-0.415649
-0.0296021
0.340271
0.582886
0.680237
0.544739
0.339355
0.0994873
-0.22644
-0.26123
-0.055542
0.0808716
0.0564575
0.0100708
-0.158997
-0.400696
-0.457764
-0.403137
-0.283508
0.0177002
0.263977
0.361633
0.360718
0.139771
0.00671387
-0.129089
-0.186462
-0.228271
-0.263977
-0.233765
-0.144348
-0.0601196
0.0479126
0.180359
0.161743
0.102539
0.10376
0.0814819
0.0561523
0.000305176
-0.0344849
-0.0421143
-0.0219727
0.0610352
0.102539
0.0109863
-0.13916
-0.197449
-0.143127
-0.0595093
0.0012207
0.0604248
0.085144
0.119019
0.179443
0.229797
0.184937
0.0952148
0.00396729
0.0308228
0.0158691
-0.067749
-0.102844
-0.151672
-0.213928
-0.16449
-0.0848389
-0.0405884
-0.00671387
0.0244141
0.00183105
-0.0305176
0.0396729
0.133362
0.206299
0.37323
0.590515
0.646362
0.641479
0.53009
0.31311
0.315857
0.0967407
-0.26886
-0.429993
-0.441589
-0.368652
-0.280457
-0.213928
-0.239563
-0.112305
0.232849
0.39856
0.320435
0.055542
-0.288391
-0.429382
-0.274048
-0.0588989
0.0515747
0.0561523
-0.0814819
-0.235596
-0.1828
-0.106201
-0.0305176
0.0189209
0.0473022
0.0137329
-0.0305176
-0.0918579
-0.141296
-0.211487
-0.177612
-0.09552
-0.0534058
-0.0524902
-0.072937
-0.0228882
0.00152588
-0.00732422
-0.0653076
-0.118103
-0.137634
-0.112
-0.0585938
-0.039978
-0.0183105
0.00396729
0.0332642
0.0296021
0.00274658
-0.0222778
0.0256348
0.09552
0.207214
0.325623
0.462646
0.50354
0.475769
0.391235
0.254822
0.171509
0.155029
0.215149
0.290833
0.260315
0.1474
0.0909424
0.182495
0.183105
-0.0308228
-0.228577
-0.335999
-0.366821
-0.412292
-0.462341
-0.437012
-0.315857
-0.189514
-0.0946045
-0.0302124
-0.00823975
-0.00762939
0.0402832
0.100708
0.108032
0.118713
0.173035
0.118713
-0.0732422
-0.159302
-0.132751
-0.0942993
-0.0643921
-0.0756836
-0.00701904
0.0598145
0.129089
0.236816
0.287781
0.212097
0.0231934
-0.173035
-0.296021
-0.247803
-0.0778198
0.0674438
0.143738
0.121155
0.0357056
-0.110779
-0.13855
0.0558472
0.158081
0.137939
0.160828
0.202942
0.281677
0.40741
0.391541
0.0799561
-0.169678
-0.166931
-0.0531006
0.0469971
0.105286
0.179749
0.204773
0.109558
-0.0634766
-0.153809
-0.234985
-0.238342
-0.110168
-0.0256348
0.00732422
-0.0241089
-0.0643921
-0.132446
-0.161133
-0.185242
-0.23468
-0.21759
-0.145264
-0.0939941
-0.0332642
0.00274658
0.027771
0.0445557
0.0341797
-0.00457764
-0.0845337
-0.176697
-0.26947
-0.259705
-0.132446
0.0692749
0.2948
0.536194
0.504761
0.295715
-0.0424194
-0.200195
-0.083313
0.21637
0.551453
0.783386
0.70343
0.522156
0.319519
0.305481
0.464783
0.413818
0.21698
-0.0473022
-0.343628
-0.472717
-0.519104
-0.579529
-0.566101
-0.584106
-0.635681
-0.575867
-0.33905
-0.0741577
0.00335693
-0.0231934
-0.045166
0.0234985
0.0622559
0.0735474
0.0717163
0.118713
0.155029
0.130615
-0.0527954
-0.172729
-0.161743
-0.135803
-0.0646973
0.0140381
-0.00732422
-0.0698853
-0.0183105
0.158691
0.263977
0.235291
0.245667
0.287476
0.297546
0.0836182
-0.193481
-0.227966
-0.106201
0.0378418
0.155334
0.0802612
-0.127258
-0.23407
-0.255127
-0.293884
-0.31311
-0.273132
-0.186157
0.00640869
0.184937
0.293579
0.379333
0.43335
0.357361
0.289307
0.307922
0.270691
0.13031
0.00946045
-0.108948
-0.198364
-0.192871
-0.0695801
-0.020752
-0.0213623
0.012207
0.0320435
0.0656128
0.20874
0.387878
0.400085
0.30426
0.144958
-0.152588
-0.41626
-0.471802
-0.350952
-0.193787
0.173035
0.568237
0.858765
0.766602
0.477295
0.0759888
-0.200195
-0.154419
-0.137024
-0.0692749
0.00976562
-0.115662
-0.236816
-0.278625
-0.422363
-0.314636
-0.123596
-0.0411987
-0.0216675
-0.0521851
-0.132751
-0.174866
-0.15564
-0.106201
-0.101624
-0.115356
-0.0912476
-0.0799561
-0.0927734
-0.146179
-0.197144
-0.205078
-0.152893
-0.09552
-0.0534058
-0.0665283
-0.100708
-0.0692749
-0.0198364
0.0213623
0.0888062
0.152893
0.198059
0.240173
0.295715
0.310364
0.249939
0.177917
0.110779
0.107117
0.0927734
0.0350952
0.00915527
-0.0717163
-0.195312
-0.250549
-0.149841
-0.00457764
0.116577
0.220642
0.226746
0.158691
0.139771
0.193787
0.274353
0.254517
0.152893
0.140686
0.00946045
-0.0445557
-0.055542
-0.0543213
-0.142517
-0.212708
-0.155334
-0.0436401
0.00915527
0.0854492
0.0613403
-0.234375
-0.318604
-0.138245
0.0915527
0.271606
0.137634
0.0799561
0.127869
0.192261
0.126038
-0.0695801
-0.238342
-0.151367
-0.0445557
-0.00335693
-0.038147
-0.140991
-0.253906
-0.279236
-0.281372
-0.313416
-0.249023
-0.135193
-0.0238037
0.0219727
0.0299072
-0.0534058
-0.0924683
-0.0668335
-0.0360107
-0.0521851
-0.0283813
0.0637817
0.136414
0.213013
0.231628
0.168762
0.0668335
-0.0506592
-0.103149
-0.0372314
-0.0631714
-0.121155
-0.168762
-0.125427
-0.0521851
0.0479126
0.0912476
0.108948
0.0668335
0.0457764
-0.0158691
-0.03479
0.0402832
0.203247
0.317383
0.347595
0.344849
0.333557
0.167236
0.083313
0.0375366
-0.0231934
-0.00610352
0.192261
0.404968
0.461731
0.287476
-0.0457764
-0.217896
-0.185852
-0.0360107
0.0558472
0.0949097
0.0125122
-0.190125
-0.23407
-0.222473
-0.165405
-0.224915
-0.296326
-0.27771
-0.175171
0.0772095
0.221252
0.26001
0.313721
0.228577
0.0436401
-0.112305
-0.312195
-0.366211
-0.166626
-0.17334
-0.238953
-0.209961
-0.121155
-0.0637817
-0.0613403
-0.0802612
-0.0958252
-0.0881958
-0.0671387
-0.0650024
-0.0805664
-0.0656128
-0.107727
-0.154419
-0.0772095
0.144348
0.310974
0.32959
0.199585
0.0393677
-0.0262451
-0.0424194
-0.0100708
0.057373
0.115051
0.141907
0.0808716
-0.0198364
-0.123291
-0.16449
-0.0860596
0.0466919
0.100403
0.0482178
-0.00854492
0.00671387
0.0106812
-0.0534058
-0.0619507
-0.0488281
-0.022583
-0.0115967
-0.0274658
-0.0668335
-0.100403
-0.105286
-0.0952148
-0.0299072
0.0494385
0.0906372
0.133667
0.213928
0.292664
0.441589
0.753174
1.00281
1.12244
1.02753
0.455017
-0.201721
-0.415039
-0.378418
-0.524597
-0.642395
-0.569458
-0.475464
-0.423584
-0.328064
-0.24231
-0.175781
-0.0354004
0.106506
0.163574
0.176392
0.141907
0.0753784
0.00610352
-0.0177002
-0.0921631
-0.0558472
-0.0469971
-0.115356
-0.118408
-0.0610352
0.0143433
-0.0161743
-0.105591
-0.14679
-0.119629
-0.050354
0.032959
0.0424194
0.017395
0.0622559
0.038147
-0.072937
-0.0979614
-0.110779
-0.237427
-0.23407
-0.175171
-0.129395
0.0286865
0.0570679
0.0302124
-0.0204468
-0.110474
-0.167542
-0.166321
-0.0805664
0.00732422
0.0265503
0.0357056
0.0402832
0.0592041
0.118408
0.181274
0.180969
0.111694
0.00854492
-0.112
-0.191345
-0.194092
-0.157471
-0.124207
-0.0537109
-0.00518799
0.0143433
0.0244141
0.0946045
0.123291
0.114441
0.0967407
0.0332642
0.0189209
0.161133
0.369568
0.576477
0.706482
0.73761
0.558167
0.23468
0
-0.129395
-0.25238
-0.279236
-0.220337
-0.194397
-0.213013
-0.245667
-0.229492
-0.152588
-0.0411987
0.124817
0.274658
0.324097
0.175171
-0.0811768
-0.327454
-0.629272
-0.570374
-0.256653
0.0146484
0.1474
0.229797
0.267639
0.128174
-0.0268555
-0.093689
-0.0875854
-0.0598145
-0.0628662
-0.0686646
-0.0177002
0.038147
0.0845337
0.0991821
0.101624
0.0891113
0.0482178
0.0201416
0.0341797
0.0906372
0.065918
0.0805664
0.0430298
0.0466919
0.0436401
-0.0308228
-0.121155
-0.0320435
0.228271
0.463867
0.440674
0.214233
-0.0430298
-0.28717
-0.323486
-0.245056
-0.181274
-0.192871
-0.252075
-0.298462
-0.319824
-0.260315
-0.137024
-0.0186157
0.0524902
0.0726318
0.0366211
0.0274658
0.129395
0.175476
0.219727
0.205383
0.0967407
-0.0799561
-0.200806
-0.23468
-0.188293
-0.131226
-0.0897217
-0.00701904
0.0610352
0.0262451
-0.0268555
-0.0238037
0.0228882
0.125427
0.244751
0.332947
0.309753
0.297546
0.234375
0.180969
0.198364
0.10437
-0.0219727
-0.138245
-0.125732
-0.0524902
-0.107727
-0.199585
-0.263977
-0.301514
-0.226135
-0.108032
-0.00946045
0.187378
0.419006
0.388489
0.426636
0.344238
0.105286
0.0735474
0.207825
0.300598
0.227966
0.121765
0
-0.244446
-0.558472
-0.621643
-0.438538
-0.202637
-0.0796509
-0.0424194
-0.100098
-0.160217
-0.194397
-0.166321
-0.140686
-0.0308228
0.0946045
0.241699
0.431519
0.639343
0.726013
0.572815
0.365601
0.164795
-0.138245
-0.26001
-0.235291
-0.201416
-0.233154
-0.326538
-0.331116
-0.245056
-0.194092
-0.173645
-0.12085
-0.0958252
-0.0491333
-0.057373
-0.107727
-0.190125
-0.140686
0.168457
0.350647
0.307922
0.248108
-0.0442505
-0.244446
-0.211182
-0.131836
-0.124817
-0.154114
-0.159302
-0.12146
-0.0775146
-0.0753784
-0.0827026
-0.0753784
-0.0775146
-0.00396729
0.0405884
0.0350952
0.0366211
0.0384521
0.0100708
0.111694
0.188904
0.135498
0.0387573
-0.0228882
-0.0180054
0.0317383
0.0509644
0.0912476
0.116882
0.169373
0.270081
0.203552
0.0839233
-0.00518799
-0.0317383
0.0640869
0.32196
0.467834
0.329285
0.223389
0.215149
0.174255
0.0634766
-0.00335693
-0.0411987
-0.0552368
-0.0454712
-0.0958252
-0.199585
-0.250244
-0.289612
-0.211182
-0.0540161
0.116272
0.197144
0.102844
-0.0598145
-0.243835
-0.294189
-0.245361
-0.175171
-0.127869
-0.110168
-0.0546265
0.110168
0.244446
0.260925
0.201416
0
-0.27832
-0.385437
-0.299683
-0.0985718
0.283813
0.569458
0.674744
0.583801
0.387268
0.138245
-0.125732
-0.296631
-0.312195
-0.247192
-0.215149
-0.163879
-0.14801
-0.124817
-0.116577
-0.105286
-0.114441
-0.141296
-0.211182
-0.180664
-0.0750732
-0.0283813
-0.0088501
-0.00488281
-0.0421143
-0.0469971
-0.0491333
-0.0473022
0.03479
0.142517
0.289612
0.480347
0.543518
0.358276
0.230103
0.151978
0.100403
0.039978
-0.067749
-0.142822
-0.278625
-0.454712
-0.405884
-0.272522
-0.169983
-0.17334
-0.19043
-0.135193
-0.0366211
0.0405884
0.0274658
-0.0811768
-0.168762
-0.121155
-0.00823975
0.126343
0.307312
0.457458
0.568237
0.451965
0.263977
0.160828
-0.00793457
-0.183716
-0.195923
-0.213623
-0.154724
-0.0476074
0.0247192
0.0912476
0.027771
-0.141602
-0.143127
-0.0790405
-0.0552368
-0.0393677
-0.0302124
0.00213623
-0.0088501
-0.0799561
-0.153198
-0.159607
-0.0888062
0.020752
0.121765
0.273438
0.26001
0.0204468
-0.10437
-0.0640869
-0.00915527
-0.0415039
-0.161438
-0.249634
-0.277405
-0.202332
-0.0637817
0.0305176
0.0857544
0.105591
0.0863647
0.0958252
0.12146
0.101624
0.0653076
0.0241089
-0.0296021
-0.0424194
-0.0268555
-0.00762939
0.0247192
0.0384521
-0.0186157
-0.0723267
-0.119629
-0.124207
-0.0674438
-0.0372314
-0.0396729
-0.0283813
-0.0100708
0.0299072
0.0579834
0.0387573
0.0521851
0.0601196
0.0796509
0.108032
0.110779
0.0231934
-0.0598145
-0.0970459
-0.0534058
0.0994873
0.282898
0.379944
0.383606
0.372925
0.312195
0.254211
0.277405
0.46936
0.523682
0.348511
0.0656128
-0.21698
-0.447693
-0.466614
-0.423584
-0.424805
-0.350647
-0.370178
-0.487671
-0.516052
-0.407715
-0.30304
-0.209656
-0.0488281
0.16449
0.275879
0.273743
0.11261
-0.14679
-0.342407
-0.276489
-0.126038
0.0646973
0.218811
0.26001
0.203247
0.124512
0.038147
-0.0411987
-0.0375366
-0.00518799
0.000915527
0.00396729
-0.0741577
-0.20752
-0.278015
-0.252686
-0.166626
-0.0964355
-0.0482178
-0.0231934
-0.0256348
-0.0372314
-0.0439453
-0.0463867
-0.0866699
-0.108337
-0.0714111
0.00366211
0.0524902
0.00976562
-0.0762939
-0.167236
-0.215149
-0.230713
-0.204468
-0.114441
0.0213623
0.134583
0.129089
0.0897217
0.00732422
-0.0619507
-0.118103
-0.117188
-0.0534058
-0.0241089
-0.0469971
-0.0756836
-0.0726318
-0.0439453
-0.0259399
-0.0222778
-0.0344849
-0.0408936
-0.072937
-0.0973511
-0.0891113
-0.098877
-0.0723267
0.00427246
-0.0717163
-0.218811
-0.240479
-0.0799561
0.186157
0.380249
0.377808
0.315857
0.288696
0.178223
0.0326538
-0.0473022
-0.0418091
0.0482178
0.1474
0.153503
0.0210571
-0.155945
-0.291443
-0.287476
-0.204468
-0.0997925
-0.137939
-0.288391
-0.331421
-0.281067
-0.191956
-0.107727
-0.0650024
-0.0549316
-0.0814819
-0.0930786
-0.142822
-0.168762
-0.166626
-0.119934
-0.137024
-0.146484
-0.105896
-0.108643
-0.144348
-0.188599
-0.122986
0.0296021
0.140076
0.230408
0.269775
0.145874
0.0320435
-0.000610352
0.03479
0.10437
0.31311
0.533142
0.622864
0.578308
0.469666
0.21698
-0.0271606
-0.124817
-0.145874
-0.154724
-0.155945
-0.117493
-0.0119019
0.0314331
0.238342
0.490417
0.640564
0.698242
0.613098
0.23407
-0.174866
-0.368652
-0.479126
-0.460815
-0.254822
-0.0100708
0.198669
0.292969
0.286255
0.190735
0.0256348
-0.124817
-0.198364
-0.200195
-0.159302
-0.17395
-0.14679
0.00335693
0.10498
0.146179
0.0402832
-0.142212
-0.0738525
0.0531006
0.157166
0.235596
0.258179
0.220642
0.164795
0.072937
0.0512695
0.123596
0.151062
0.107117
0.101929
0.108643
0.0747681
0.071106
0.062561
0.0979614
0.1297
0.151062
0.150452
0.133667
0.108643
0.14801
0.282898
0.427856
0.557861
0.654602
0.715637
0.608215
0.385437
0.062561
-0.150757
-0.218811
-0.0646973
0.162964
0.316772
0.284119
0.133972
-0.0854492
-0.0866699
-0.0213623
0.0216675
0.112
0.19928
0.245056
0.166931
-0.00152588
-0.0750732
-0.0454712
0.0189209
0.0463867
0.126953
0.223694
0.121765
-0.00518799
-0.0476074
-0.0238037
0.0564575
0.1474
0.186157
0.1828
0.249329
0.426025
0.569458
0.67688
0.710449
0.591125
0.353699
0.248718
0.207214
0.0552368
-0.182495
-0.302429
-0.277405
-0.200195
-0.0259399
0.0888062
0.138245
0.152893
0.163269
0.127869
-0.00244141
-0.0564575
-0.055542
-0.0772095
-0.0634766
-0.017395
-0.00427246
0.00335693
-0.0201416
-0.0170898
-0.0201416
0.00274658
0.0570679
0.115356
0.180664
0.245056
0.275574
0.228577
0.106506
0.0521851
0.0775146
-0.0354004
-0.00640869
0.140991
0.206909
0.132141
-0.0140381
-0.0949097
-0.145874
-0.0476074
0.140686
0.2005
0.0759888
-0.038147
-0.0250244
0.0759888
0.30304
0.460815
0.468445
0.360107
0.317688
0.336609
0.275879
0.0946045
-0.0939941
-0.294189
-0.483398
-0.4776
-0.329895
-0.187378
-0.107727
-0.0656128
-0.0476074
-0.0582886
-0.0939941
-0.180359
-0.252075
-0.339661
-0.321045
-0.194702
-0.0524902
-0.0598145
-0.0189209
0.0946045
0.202637
0.259094
0.224304
0.16571
0.0964355
-0.0784302
-0.223083
-0.0857544
0.0775146
0.0894165
-0.057373
-0.23407
-0.338745
-0.332336
-0.337524
-0.259705
-0.189209
-0.191956
-0.219727
-0.19928
-0.128479
-0.0601196
-0.012207
-0.0506592
-0.179749
-0.196228
-0.193176
-0.153503
0
0.155945
0.234375
0.438538
0.625916
0.620422
0.48645
0.272217
-0.00854492
-0.299988
-0.474548
-0.58197
-0.612488
-0.567932
-0.450134
-0.176392
-0.0134277
-0.00579834
-0.0274658
-0.0210571
-0.00854492
-0.0662231
-0.133057
-0.24231
-0.288391
-0.251465
-0.126343
-0.00915527
0.0592041
0.0592041
-0.0888062
-0.372925
-0.560303
-0.46936
-0.146179
0.195618
0.375671
0.447998
0.480652
0.374451
0.268555
0.189209
0.178833
0.115967
0.065918
-0.0128174
-0.142822
-0.335999
-0.449524
-0.437622
-0.403137
-0.349426
-0.358582
-0.354309
-0.288696
-0.248413
-0.167847
-0.0924683
-0.137024
-0.17395
-0.125427
-0.0280762
0.0939941
0.186157
0.0982666
-0.0665283
-0.0491333
0.00823975
0.0445557
0.0405884
0.0384521
0.0109863
-0.072937
-0.149536
-0.205383
-0.204773
-0.13031
-0.131531
-0.118408
-0.0784302
-0.0726318
-0.0393677
-0.0747681
-0.132751
-0.154724
-0.142822
-0.137024
-0.103149
-0.055542
-0.0485229
0.0131226
0.0540161
0.0558472
0.0137329
-0.0265503
-0.0881958
-0.109558
-0.0738525
-0.0326538
-0.0210571
-0.00579834
-0.00823975
-0.0100708
-0.0695801
-0.135498
-0.062561
0.0775146
0.248413
0.471802
0.592957
0.532532
0.233154
0.0012207
-0.158997
-0.301819
-0.312195
-0.243225
-0.21759
-0.206299
-0.162659
-0.0881958
-0.119019
-0.105286
-0.0537109
-0.111694
-0.245056
-0.289917
-0.239563
-0.164185
-0.0546265
0.057373
0.186462
0.258789
0.236206
0.0924683
0.0427246
0.083313
0.0802612
0.00579834
-0.0482178
-0.0854492
-0.138245
-0.237122
-0.31311
-0.324097
-0.2948
-0.272827
-0.218201
-0.122986
-0.0387573
0.0524902
0.0820923
0.109558
0.127869
0.135193
0.122375
0.114136
0.130005
0.0759888
-0.0180054
-0.170593
-0.266724
-0.28717
-0.249023
-0.102539
0.124207
0.286865
0.284119
0.243835
0.184937
0.0704956
-0.0344849
-0.171509
-0.352783
-0.455322
-0.403137
-0.213928
0.10376
0.3302
0.406189
0.24231
-0.144348
-0.363464
-0.23407
-0.179749
-0.0543213
0.115967
0.137634
0.0836182
0.00610352
-0.00732422
0.0143433
0.0344849
0.0424194
-0.0241089
-0.0588989
0.0817871
0.217285
0.313721
0.298462
0.161133
0.00183105
-0.0720215
-0.0411987
-0.00793457
-0.00640869
-0.0424194
-0.128174
-0.0778198
-0.0259399
-0.106812
-0.202942
-0.179749
-0.116272
0.0137329
0.153198
0.275574
0.332031
0.30426
0.101929
-0.103149
-0.204773
-0.246277
-0.226135
-0.19043
-0.134277
-0.071106
-0.0140381
0.0622559
0.127563
0.145264
0.0714111
-0.0802612
-0.122681
-0.143738
-0.114746
-0.0473022
-0.0717163
-0.134277
-0.132141
-0.085144
-0.0839233
-0.0958252
-0.0427246
0.00732422
0.0234985
0.0692749
0.0811768
0.113831
0.16571
0.230713
0.258484
0.289917
0.32074
0.2771
0.191345
0.0152588
-0.142212
-0.158997
-0.0912476
-0.113525
-0.157166
-0.209656
-0.310974
-0.333557
-0.178223
-0.032959
0.0997925
0.210876
0.297852
0.297546
0.291443
0.235901
0.0775146
0.0646973
0.239258
0.362244
0.334167
0.271301
0.152283
-0.121765
-0.220032
-0.201111
-0.162964
-0.158997
-0.193481
-0.202026
-0.179443
-0.071106
0.0363159
0.109253
0.172729
0.170288
0.127869
0.0863647
-0.00488281
-0.0241089
-0.0698853
-0.0830078
-0.0579834
-0.0497437
-0.0872803
-0.117493
-0.185852
-0.257874
-0.23468
-0.117493
-0.0350952
-0.00244141
-0.00396729
0.0262451
0.0445557
0.0579834
0.0802612
0.112305
0.105896
0.113525
0.0564575
-0.0515747
-0.062561
-0.0518799
-0.0888062
-0.134888
-0.10437
-0.0442505
-0.0497437
-0.0473022
0.0198364
0.0497437
-0.0256348
-0.0515747
-0.0292969
-0.0384521
-0.102539
-0.126648
-0.100708
-0.0186157
0.0552368
0.085144
0.135498
0.1474
0.124207
0.0671387
0.0366211
0.0418091
0.000305176
-0.0942993
-0.14801
-0.145874
-0.126648
-0.045166
0.067749
0.129089
0.132751
0.13092
0.118713
0.232544
0.453491
0.609131
0.663147
0.517578
0.162659
-0.185242
-0.340881
-0.37384
-0.318298
-0.186768
-0.0845337
-0.0247192
-0.00946045
0.0250244
0.0521851
0.115967
0.116272
0.0466919
0.0302124
0.0643921
0.237732
0.349731
0.364075
0.343018
0.288696
0.173035
0.00488281
-0.111389
-0.200195
-0.20874
-0.235901
-0.255127
-0.21759
-0.219727
-0.270691
-0.279846
-0.232544
-0.187683
-0.140381
-0.0631714
0.0436401
0.118408
0.202942
0.204773
0.10437
-0.0268555
-0.13092
-0.161438
-0.127563
-0.0134277
0.00213623
-0.0588989
-0.0894165
-0.03479
0.000305176
0.00640869
-0.0100708
-0.00488281
0.0283813
0.0485229
0.071106
0.0723267
0.090332
0.148926
0.195618
0.212097
0.188599
0.102539
-0.00762939
-0.125122
-0.160828
-0.140076
-0.121155
-0.0579834
0.0289917
0.158386
0.153198
0.0561523
-0.0106812
0.0732422
0.418701
0.917664
1.19507
0.874939
0.323181
-0.104065
-0.383911
-0.498352
-0.496521
-0.498962
-0.569763
-0.563965
-0.442505
-0.263062
-0.0363159
0.146484
0.258484
0.296326
0.275879
0.275269
0.230408
0.135498
0.0756836
0.112305
0.0753784
-0.0540161
-0.122681
-0.145874
-0.156555
-0.130615
-0.10498
-0.0888062
-0.0521851
-0.00457764
0.0405884
0.0616455
0.115356
0.21637
0.324097
0.419006
0.454712
0.455322
0.342407
0.163879
-0.0753784
-0.242615
-0.351868
-0.341492
-0.301208
-0.194397
-0.0500488
-0.022583
-0.0698853
-0.0991821
-0.0521851
-0.0204468
-0.0323486
-0.032959
-0.0305176
-0.0167847
0.0473022
0.175171
0.274658
0.323486
0.235596
0.0793457
0.000610352
-0.0222778
-0.0253296
-0.0732422
-0.198364
-0.275269
-0.21759
-0.0762939
0.220947
0.408936
0.32196
0.277405
0.375977
0.35614
0.241394
0.177917
0.0958252
0.0134277
0.0137329
-0.0125122
-0.107727
-0.138245
-0.0366211
0.0726318
0.0750732
-0.0469971
-0.0656128
-0.0567627
-0.00793457
0.137939
0.169678
0.135193
0.0524902
-0.012207
-0.093689
-0.197754
-0.247192
-0.227356
-0.131226
-0.120544
-0.118713
-0.0567627
0.130005
0.215454
0.144348
0.0628662
-0.100098
-0.215149
-0.23468
-0.247498
-0.18158
-0.03479
0.0906372
0.174561
0.162964
0.0881958
-0.0497437
-0.071106
0.0112915
0.0375366
0.043335
0.0430298
0.00152588
-0.0372314
-0.0787354
-0.0546265
-0.0146484
0.022583
0.0924683
0.126953
0.148315
0.163879
0.110168
0.0149536
-0.0012207
-0.0119019
-0.0119019
0.0106812
-0.0088501
0.0366211
0.223389
0.360718
0.540466
0.654602
0.599976
0.499878
0.428772
0.168152
-0.057373
-0.166626
-0.144958
-0.00823975
0.110168
0.149841
0.133362
0.06073
-0.0564575
-0.134277
-0.170898
-0.124512
-0.168457
-0.230103
-0.317078
-0.326843
-0.190125
0.0344849
0.135498
0.127563
0.0784302
-0.0796509
-0.19043
-0.124207
-0.0964355
-0.105286
-0.102234
-0.0973511
-0.148621
-0.235291
-0.221252
-0.138855
-0.0283813
0.0308228
0.0839233
0.102844
0.088501
0.0515747
0.0540161
0.0112915
-0.055542
-0.0628662
0.000610352
0.083313
0.153503
0.305481
0.438232
0.383301
0.212402
0.118408
-0.0216675
-0.170898
-0.170898
-0.133667
-0.100403
-0.0979614
-0.109558
-0.110779
-0.124512
-0.117493
-0.0973511
-0.0830078
-0.0653076
-0.0616455
-0.0396729
-0.038147
-0.0488281
-0.0289917
0.0405884
0.0927734
0.163879
0.171814
0.125732
0.170898
0.214539
0.202026
0.226746
0.230713
0.038147
-0.111389
-0.0268555
0.0949097
0.112
-0.085144
-0.188904
-0.164185
-0.0527954
0.153198
0.368042
0.356445
0.289307
0.296631
0.206909
0.00610352
-0.137634
-0.177307
-0.19165
-0.228577
-0.231018
-0.181885
-0.161438
-0.178528
-0.0506592
0.218201
0.339661
0.348206
0.365601
0.379639
0.361023
0.348206
0.289612
0.0738525
-0.155334
-0.235596
-0.172729
-0.0881958
-0.0341797
-0.0378418
-0.0219727
-0.127258
-0.213013
-0.240784
-0.165405
-0.160522
-0.239258
-0.166321
-0.0500488
0.0848389
0.249329
0.28595
0.158691
0.0231934
-0.139771
-0.223694
-0.171814
-0.151978
-0.19165
-0.215454
-0.174866
-0.0759888
0.0582886
0.228271
0.361023
0.374756
0.205994
0.111694
0.0375366
-0.0143433
0.00823975
0.0570679
0.0628662
0.057373
0.0689697
0.110779
0.150146
0.111694
0.0265503
-0.172424
-0.314636
-0.237732
-0.183411
-0.1651
-0.045166
0.112
0.285034
0.404968
0.422974
0.289001
0.144958
0.19165
0.220642
0.0921631
-0.0653076
-0.137329
-0.205688
-0.220032
-0.20752
-0.214233
-0.179443
-0.187073
-0.154114
-0.0704956
0.020752
0.0421143
0.0289917
0.0119019
0.00213623
-0.00915527
-0.0411987
-0.124817
-0.189514
-0.188293
-0.177002
-0.150452
0.0515747
0.111694
0.0930786
0.116577
0.138245
0.203247
0.150452
0.0186157
0.0115967
0.088501
0.136414
0.121155
0.0265503
-0.131836
-0.209045
-0.256042
-0.334778
-0.388184
-0.420227
-0.415039
-0.354614
-0.128174
0.131531
0.350342
0.565491
0.68573
0.758362
0.648499
0.351257
0.0570679
-0.0189209
-0.123291
-0.26123
-0.270691
-0.330811
-0.386353
-0.332336
-0.265198
-0.198975
-0.150452
-0.0314331
0.133972
0.181885
0.09552
-0.0100708
-0.0952148
-0.189819
-0.102234
0.0582886
0.174561
0.214539
0.0985718
-0.09552
-0.146484
-0.108948
-0.0564575
-0.0515747
-0.0759888
-0.0512695
0.00640869
0.0314331
-0.00335693
-0.173035
-0.368347
-0.406189
-0.292664
-0.0982666
0.000610352
-0.0100708
-0.0296021
0.0265503
0.0473022
0.0408936
0.027771
-0.00488281
-0.0244141
-0.0296021
-0.00274658
0.0332642
0.078125
0.124512
0.159912
0.151978
0.123291
0.197449
0.265503
0.276794
0.339355
0.26825
0.0509644
-0.00823975
-0.071106
-0.218811
-0.263672
-0.302429
-0.346985
-0.332336
-0.207214
-0.0967407
-0.0454712
-0.0234985
0.0854492
0.176697
0.241699
0.206909
0.231018
0.261841
0.158081
-0.0778198
-0.169067
-0.142212
-0.090332
-0.114441
-0.134277
-0.0588989
0.0552368
0.022583
-0.0845337
-0.167236
-0.247803
-0.247192
-0.180054
-0.120544
-0.0811768
-0.0747681
-0.0753784
-0.0744629
-0.0646973
-0.0613403
-0.0524902
-0.0576782
-0.0802612
-0.0796509
-0.0924683
-0.0772095
-0.0357056
-0.00579834
-0.0720215
-0.144653
-0.169678
-0.0622559
0.167236
0.305786
0.330505
0.372314
0.24353
0.0582886
-0.0909424
-0.144653
0.0231934
0.270996
0.374756
0.357361
0.22583
-0.0671387
-0.295715
-0.311279
-0.273743
-0.248108
-0.149231
-0.0592041
-0.0201416
-0.00610352
-0.0189209
-0.122681
-0.23407
-0.206604
-0.169067
-0.149231
-0.10376
-0.0827026
-0.0775146
-0.0357056
0.0326538
0.098877
0.188293
0.285034
0.25116
0.151978
0.0439453
-0.0332642
-0.153503
-0.207825
-0.19043
-0.0469971
0.149536
0.30365
0.430908
0.450134
0.299988
0.195618
0.111389
0.00549316
-0.176392
-0.310059
-0.307312
-0.159302
0.0192261
0.072937
0.0875854
0.0274658
-0.0778198
-0.111694
-0.0631714
-0.0646973
-0.140076
-0.152283
-0.0256348
0.0820923
0.106201
0.00305176
-0.182495
-0.223389
-0.125122
-0.0961304
-0.138855
-0.0961304
-0.0588989
-0.0100708
-0.00274658
-0.0454712
-0.0915527
-0.0680542
0
0.0717163
0.0872803
0.0979614
0.126343
0.0900269
0.0665283
0.0585938
-0.0100708
-0.131836
-0.168152
-0.103455
-0.0546265
-0.00793457
0.0592041
0.0961304
0.0921631
0.0439453
-0.00366211
0.0363159
0.154724
0.32959
0.511169
0.653992
0.693054
0.674133
0.502014
0.189209
-0.0384521
-0.162048
-0.168762
-0.144653
-0.115051
-0.141296
-0.265198
-0.443726
-0.544128
-0.546265
-0.378418
-0.072937
0.0540161
0.0582886
-0.0518799
-0.0918579
0.0411987
0.110168
0.154724
0.271606
0.354919
0.305481
0.166931
0.055542
0.0753784
0.231934
0.284729
0.0772095
-0.211792
-0.395203
-0.38147
-0.117798
0.196228
0.381165
0.487976
0.47821
0.0778198
-0.149536
-0.0234985
0.174255
0.283813
0.288086
0.00671387
-0.410767
-0.528564
-0.45105
-0.404053
-0.357666
-0.324097
-0.283508
-0.218811
-0.0973511
-0.03479
-0.0296021
-0.0457764
-0.0976562
-0.115051
-0.088501
-0.050354
-0.0515747
-0.0131226
0.00823975
0.0247192
0.0198364
0.0109863
0.0732422
0.133972
0.144348
0.13092
0.0717163
0.0469971
0.0088501
0.000305176
0.0387573
0.0875854
0.126343
0.144958
0.107727
0.0460815
0.108948
0.178223
0.170593
0.0869751
-0.00335693
-0.112915
-0.0784302
-0.00823975
-0.0476074
0.00488281
0.240173
0.530701
0.883789
0.985413
0.737305
0.184021
-0.119629
-0.167542
-0.231628
-0.296631
-0.391235
-0.35614
-0.358887
-0.322266
-0.180054
-0.100708
-0.180359
-0.187378
-0.151672
-0.168762
-0.280151
-0.366821
-0.340271
-0.2771
-0.154114
0.0790405
0.231628
0.343323
0.37262
0.23468
-0.00457764
-0.098877
-0.088501
-0.0445557
0.0759888
0.337219
0.687256
0.963135
0.975342
0.631409
0.0527954
-0.359802
-0.41748
-0.245667
0.0469971
0.265808
0.35614
0.253296
-0.0448608
-0.314636
-0.403748
-0.355225
-0.261841
-0.067749
-0.0582886
-0.205383
-0.304871
-0.287476
-0.257568
-0.108948
-0.0921631
-0.296936
-0.448608
-0.439758
-0.315552
-0.160828
-0.0921631
-0.00274658
0.0720215
0.0915527
0.0994873
0.131226
0.151978
0.167236
0.174255
0.175171
0.172119
0.113525
-0.0411987
-0.0619507
-0.0320435
-0.0332642
-0.101318
-0.197144
-0.166931
-0.00915527
0.222473
0.431519
0.56366
0.524597
0.331726
0.142212
0.0839233
0.00396729
-0.178528
-0.341492
-0.36438
-0.267944
-0.155334
-0.0747681
-0.0219727
0.114136
0.201416
0.221558
0.197144
0.162048
0.0665283
-0.103455
-0.229797
-0.175476
-0.0402832
0.090332
0.171814
0.221252
0.155945
-0.0137329
-0.0924683
-0.115967
-0.111694
-0.0799561
-0.0692749
-0.0872803
-0.0949097
-0.0167847
0.00793457
0.0106812
-0.10376
-0.11322
-0.111389
-0.11322
-0.100708
-0.0402832
0.017395
0.0497437
0.0418091
0.055542
0.0982666
0.104065
0.0531006
0.0216675
0.0839233
0.12085
0.185242
0.328064
0.487061
0.509033
0.600891
0.653687
0.350647
-0.0189209
-0.303955
-0.45105
-0.378723
-0.262451
-0.30365
-0.405273
-0.439758
-0.448608
-0.303345
-0.158691
-0.0384521
0.103455
0.11322
0.083313
0.0839233
0.132751
0.104065
0.0241089
-0.115356
-0.214233
-0.302734
-0.2771
-0.0982666
0.152283
0.366821
0.480652
0.431519
0.383911
0.264282
0.154724
-0.132446
-0.373535
-0.417175
-0.27832
-0.167542
-0.150452
-0.0927734
0
0.0509644
0.0656128
0.0799561
0.114136
0.159607
0.2005
0.159912
0.0115967
-0.184021
-0.184631
-0.0231934
0.202637
0.359497
0.384827
0.280762
0.134888
-0.0860596
-0.325623
-0.395203
-0.291138
-0.0942993
0.0759888
0.174866
0.281677
0.247192
0.0979614
-0.03479
-0.0927734
-0.131836
-0.101929
-0.0445557
-0.0976562
-0.170593
-0.221863
-0.209045
-0.151978
-0.0881958
-0.0192261
0.0515747
0.0500488
0.032959
0.027771
-0.0247192
-0.0491333
-0.0387573
-0.0604248
-0.0720215
0.0180054
0.149231
0.258484
0.36499
0.454407
0.484924
0.497742
0.396423
0.179138
-0.0308228
-0.297241
-0.422363
-0.292664
-0.0842285
-0.0415039
-0.145569
-0.206909
-0.282593
-0.320129
-0.250549
-0.110779
0.105591
0.234985
0.240784
0.0704956
-0.113525
-0.150146
-0.102539
-0.0732422
-0.11261
-0.180969
-0.237427
-0.233765
-0.169983
-0.0363159
0.12207
0.242004
0.2948
0.277405
0.158386
0.012207
-0.0634766
-0.0653076
-0.0796509
-0.0527954
-0.0772095
-0.147095
-0.185852
-0.191345
-0.162659
-0.0616455
0.0088501
0.0289917
-0.0198364
-0.0473022
-0.0180054
0.0479126
0.124512
0.146484
0.122375
0.0967407
0.0891113
0.00427246
0.0234985
0.0820923
0.110779
0.163574
0.263977
0.249023
0.106506
-0.0296021
0.0012207
0.104675
0.231628
0.396729
0.461121
0.396118
0.254211
0.0579834
-0.25238
-0.360718
-0.235901
-0.0790405
0.0531006
0.183105
0.176697
-0.0170898
-0.0900269
-0.0946045
-0.189209
-0.304871
-0.319519
-0.274963
-0.155029
0.0946045
0.331726
0.404053
0.357971
0.26001
0.208435
0.221252
0.100403
-0.13916
-0.295105
-0.297546
-0.275269
-0.285034
-0.28656
-0.235596
-0.177002
-0.0976562
-0.0714111
-0.115662
-0.144653
-0.162659
-0.145874
-0.0921631
-0.0186157
0.0741577
0.104065
0.135803
0.160828
0.177002
0.184937
0.168762
0.169373
0.189819
0.169373
0.171509
0.173035
0.140076
0.0238037
-0.174255
-0.307312
-0.275574
-0.181885
-0.0622559
0.0915527
0.136108
0.0582886
-0.0387573
-0.121765
-0.187378
-0.131836
-0.0656128
-0.0622559
-0.0344849
0.0445557
0.137329
0.183411
0.20874
0.107117
0.0357056
0.00946045
0.0836182
0.0787354
-0.0762939
-0.104065
-0.0213623
0.0305176
0.0161743
-0.0402832
-0.0674438
-0.0857544
-0.0570679
0.115967
0.309143
0.410461
0.420837
0.30304
0.126343
0.0436401
0.00274658
-0.0894165
-0.20874
-0.237732
-0.209656
-0.193481
-0.149536
-0.0933838
-0.0408936
0.19043
0.48584
0.619812
0.70343
0.667725
0.369568
0.0546265
-0.134888
-0.236206
-0.273132
-0.244446
-0.22644
-0.282898
-0.246277
-0.169678
-0.11261
-0.122986
-0.129395
-0.050354
-0.0231934
-0.00854492
-0.020752
-0.0793457
-0.0762939
-0.0387573
-0.0213623
-0.0436401
-0.0839233
-0.065918
-0.0744629
-0.071106
0.0134277
0.105591
0.131531
0.124817
0.1297
0.160217
0.150757
0.0878906
0.039978
-0.0140381
-0.0271606
0.0402832
0.167542
0.290222
0.38208
0.290527
0.0485229
-0.155029
-0.257874
-0.327454
-0.570068
-0.725098
-0.605774
-0.260925
0.14801
0.541382
0.695496
0.59021
0.265808
0.0701904
-0.0509644
-0.121765
-0.0888062
-0.00732422
0.0384521
0.0146484
-0.0561523
-0.116882
-0.148621
-0.165405
-0.161133
-0.151367
-0.144653
-0.0765991
-0.0326538
-0.107727
-0.0900269
-0.0415039
-0.0247192
0.000915527
0.0335693
0.176086
0.35553
0.409241
0.331726
0.152283
-0.0869751
-0.0411987
0.065918
0.109253
0.115356
0.0952148
-0.032959
-0.0802612
-0.0582886
-0.027771
0.0570679
0.205688
0.283813
0.28717
0.276489
0.140686
-0.11322
-0.285034
-0.341187
-0.26886
-0.245972
-0.256958
-0.261536
-0.257568
-0.290222
-0.282898
-0.265198
-0.207825
-0.093689
-0.00610352
0.03479
-0.0106812
-0.0512695
-0.0378418
0.105896
0.314026
0.425415
0.549011
0.648193
0.545654
0.258484
0.0375366
-0.0973511
-0.206299
-0.247803
-0.222168
-0.164185
-0.174255
-0.234375
-0.259705
-0.227966
-0.106506
-0.00610352
0.0634766
0.0384521
-0.0524902
-0.179749
-0.22583
-0.110168
0.0585938
0.121765
0.0759888
0.0769043
0.122986
0.101929
0.0509644
0.0170898
-0.022583
-0.0772095
-0.0805664
-0.0628662
-0.0613403
-0.0674438
-0.0338745
0.0442505
0.0875854
0.0869751
0.0906372
0.123901
0.150757
0.126648
0.0976562
0.11322
0.115051
0.0537109
-0.0442505
-0.123291
-0.174255
-0.168152
-0.110474
-0.0827026
-0.10437
-0.138245
-0.19043
-0.181885
-0.195007
-0.143433
-0.0531006
-0.0134277
0.000305176
0.039978
0.0485229
0.0396729
0.0473022
0.107117
0.129395
0.143738
0.19989
0.295105
0.441589
0.579529
0.661621
0.63385
0.432129
0.173035
0.153503
0.132141
-0.0479126
-0.215454
-0.306091
-0.36377
-0.368347
-0.343018
-0.343018
-0.353699
-0.308228
-0.21698
-0.134583
-0.0900269
-0.138245
-0.140076
-0.119934
-0.169067
-0.0842285
0.0762939
0.206604
0.332947
0.405884
0.32074
0.179443
0.0457764
-0.127258
-0.189209
-0.158386
-0.218811
-0.230713
-0.148621
-0.0695801
0.0354004
0.0680542
-0.0479126
-0.0738525
-0.0466919
-0.0308228
0.0585938
0.136414
0.230103
0.326843
0.428772
0.581665
0.769653
0.934753
1.04279
0.939941
0.261841
-0.386353
-0.657654
-0.553589
-0.485535
-0.528259
-0.600586
-0.507202
-0.30304
-0.241394
-0.339966
-0.494995
-0.505676
-0.411987
-0.323792
-0.243225
-0.137329
-0.0930786
-0.0616455
-0.0411987
0.00305176
-0.0509644
-0.156555
-0.252075
-0.233154
-0.133057
-0.0427246
0.0228882
0.0238037
0.0180054
0.0354004
0.00610352
-0.00793457
0.0430298
0.0964355
0.120544
0.103455
0.0863647
0.0628662
0.0390625
0.0302124
0.0311279
0
-0.0305176
-0.00335693
-0.0375366
-0.0338745
0.0946045
0.229187
0.332642
0.371399
0.331116
0.332336
0.362854
0.358582
0.376892
0.365906
0.233459
0.00335693
-0.166931
-0.289001
-0.21698
-0.108337
0.0305176
0.262756
0.46051
0.429688
0.326843
0.151062
-0.0656128
-0.26123
-0.271912
-0.151062
-0.0762939
-0.0411987
-0.0610352
-0.109863
-0.0222778
0.172119
0.280151
0.215759
0.0604248
-0.141602
-0.124817
-0.0518799
-0.0912476
-0.168762
-0.227356
-0.264587
-0.285645
-0.26886
-0.343018
-0.482788
-0.474548
-0.317078
-0.187988
-0.0540161
0.0704956
0.109863
0.130615
0.26825
0.398865
0.350647
0.195312
0.0759888
-0.0344849
-0.0222778
0.0582886
0.0476074
0.0234985
0.0161743
0.166931
0.490112
0.733032
0.730591
0.53833
0.113525
-0.316162
-0.466003
-0.213623
0.0491333
0.177002
0.192566
0.149841
-0.0186157
-0.0680542
-0.0592041
-0.123901
-0.25116
-0.29541
-0.235901
-0.227051
-0.270996
-0.299683
-0.284424
-0.240173
-0.177917
-0.0967407
-0.0689697
-0.0524902
-0.015564
0.0253296
0.0613403
-0.00610352
0.000610352
0.0411987
0.0463867
-0.065918
-0.202332
-0.106506
0.104065
0.273132
0.276489
0.10376
-0.0210571
-0.00732422
0.0552368
0.130615
0.161133
0.127563
0.105286
0.15686
0.21759
0.219116
0.143127
0.00976562
0.0949097
0.270996
0.358582
0.335693
0.24292
0.134583
0.020752
0.0424194
0.148315
0.14679
0.0680542
0.0219727
-0.107117
-0.204163
-0.271912
-0.305481
-0.230103
-0.112305
-0.184631
-0.266113
-0.283203
-0.28717
-0.282288
-0.174866
-0.0192261
0.0704956
0.118103
0.133972
0.0228882
-0.0802612
-0.0671387
0.0476074
0.314941
0.455627
0.413513
0.247803
-0.136414
-0.565796
-0.529785
-0.444336
-0.317078
-0.115051
0.0289917
-0.0186157
-0.10498
-0.113831
-0.0866699
-0.0848389
-0.0628662
-0.0646973
-0.0842285
-0.0692749
-0.0204468
0.0152588
0.0125122
0.000610352
-0.0332642
-0.0622559
-0.0665283
-0.00793457
0.103455
0.168457
0.167847
0.112
0.0265503
0.0186157
-0.00579834
-0.0466919
-0.071106
-0.0598145
-0.00854492
0.0308228
0.057373
0.0628662
0.101013
0.177917
0.181885
0.146179
0.163879
0.0869751
-0.101318
-0.167847
-0.0671387
-0.0106812
0.083313
0.336914
0.520935
0.525208
0.36438
0.219421
0.0921631
0.00213623
-0.0268555
0.0665283
0.193787
0.323792
0.422058
0.280457
-0.0418091
-0.189819
-0.213928
-0.172424
-0.141602
-0.0991821
-0.090332
-0.112305
-0.187073
-0.248718
-0.255737
-0.212097
-0.194702
-0.238342
-0.254211
-0.250854
-0.255737
-0.203552
-0.0830078
0.0143433
0.0637817
0.0765991
0.00946045
-0.0466919
-0.0405884
0.0112915
0.0640869
0.0958252
0.135803
0.157166
0.108643
-0.0283813
-0.123596
-0.0753784
0.0509644
0.203552
0.247498
0.133057
-0.101624
-0.300903
-0.297852
-0.226135
-0.0445557
0.13031
0.141296
0.0357056
-0.0430298
-0.136108
-0.21759
-0.140076
0.0408936
0.203857
0.39917
0.425415
0.155945
0.0479126
0.20874
0.36377
0.420532
0.223083
0.157776
0.159912
0.126648
0.0946045
0.0195312
-0.0354004
-0.0238037
-0.0720215
0.0100708
0.136414
0.122375
-0.0241089
-0.10437
-0.11322
0.0430298
0.208435
0.375671
0.409851
0.389404
0.203552
-0.164795
-0.566101
-0.592651
-0.427246
-0.297852
-0.184326
-0.166321
-0.159607
-0.0790405
0.0875854
0.173645
0.238342
0.344238
0.377197
0.327759
0.253296
0.117188
-0.172424
-0.331116
-0.336609
-0.272217
-0.264893
-0.298767
-0.305481
-0.228271
-0.163574
-0.167236
-0.145569
-0.120239
-0.090332
-0.0549316
-0.0622559
-0.0842285
-0.0912476
-0.0765991
-0.0796509
-0.102844
-0.101318
-0.0778198
-0.0497437
0.00213623
0.0848389
0.0976562
0.0476074
0.0338745
0.0283813
0.0265503
0.0396729
0.0201416
0.0231934
0.0875854
0.143738
0.231628
0.413208
0.56366
0.664368
0.578308
0.310974
0.215759
0.132446
0.062561
-0.038147
0.0244141
0.0274658
0.0830078
0.177307
0.144348
0.00854492
-0.0762939
-0.276184
-0.472717
-0.558167
-0.491028
-0.293579
-0.0549316
0.154724
0.228577
0.142212
-0.0653076
-0.218811
-0.324402
-0.387573
-0.369263
-0.264893
-0.106201
-0.0158691
0.0125122
0.0314331
0.0518799
0.0588989
0.0756836
0.0524902
-0.0119019
-0.115051
-0.158386
-0.127563
-0.0552368
0.0515747
0.218811
0.306091
0.320435
0.258484
0.105286
-0.0576782
-0.137024
-0.111389
-0.0115967
0.0665283
0.10437
0.072937
0.0628662
0.0897217
0.118103
0.0863647
0.0772095
-0.0570679
-0.286865
-0.343323
-0.239258
-0.129089
-0.0244141
0.0286865
0.0665283
0.032959
-0.0161743
-0.00701904
0.000305176
0.012207
0.00793457
0.00366211
0.0198364
0.135193
0.397644
0.644226
0.733948
0.700989
0.487976
0.0888062
-0.168457
-0.218506
-0.229492
-0.250244
-0.272827
-0.213623
-0.187073
-0.218201
-0.297241
-0.159302
0.0479126
0.187073
0.361023
0.397644
0.088501
-0.186462
-0.285339
-0.274658
-0.14801
0.0830078
0.143433
0.0256348
-0.0888062
-0.203247
-0.344238
-0.357361
-0.216064
0.104065
0.529175
0.789795
0.864258
0.718079
0.289917
-0.198059
-0.222473
-0.189209
-0.253296
-0.340271
-0.403137
-0.359192
-0.26123
-0.127258
0.0579834
0.196533
0.242615
0.149536
-0.0930786
-0.302734
-0.29541
-0.227661
-0.177307
-0.125427
-0.124207
-0.0997925
-0.0360107
-0.0106812
0.0146484
0.038147
0.0115967
-0.0634766
-0.122986
-0.135193
-0.0836182
-0.0354004
-0.010376
0.0863647
0.0704956
0.0170898
-0.0177002
-0.0570679
-0.0698853
-0.0421143
-0.00274658
0.0820923
0.349731
0.693665
0.911255
0.927429
0.704041
0.273743
-0.141602
-0.358276
-0.266724
-0.0964355
-0.0564575
-0.125732
-0.296021
-0.260315
-0.158997
-0.2005
-0.411682
-0.669861
-0.780029
-0.694885
-0.400085
-0.045166
0.162048
0.151672
0.115051
0.0906372
0.0436401
0.0338745
0.0247192
0.0149536
-0.0265503
-0.0186157
0.0231934
0.0518799
0.0668335
0.0680542
0.0326538
0.0164795
-0.0274658
-0.0842285
-0.140686
-0.223694
-0.303955
-0.319214
-0.26825
-0.218201
-0.0616455
0.107727
0.197144
0.310059
0.469971
0.629578
0.726929
0.589905
0.221252
-0.0549316
-0.0720215
0.00946045
0.0994873
0.195007
0.129395
-0.0613403
-0.244446
-0.319519
-0.229187
-0.0900269
0.00549316
0.0500488
-0.0323486
-0.199585
-0.259094
-0.168762
-0.0198364
0.0592041
0.135193
0.187073
0.164185
0.115967
0.109253
0.0552368
0.0747681
0.214539
0.234375
0.150146
0.0302124
-0.118713
-0.381165
-0.340881
-0.202942
-0.127869
-0.14679
-0.160828
-0.152893
-0.121155
-0.113525
-0.0686646
-0.00732422
0.010376
-0.0735474
-0.105896
-0.148621
-0.14801
-0.110168
-0.0720215
0.00915527
0.0247192
-0.0540161
-0.0915527
-0.0546265
0.062561
0.266113
0.332031
0.377808
0.313721
0.164795
-0.0326538
-0.118408
-0.150452
-0.137329
-0.071106
-0.00579834
0.0140381
-0.020752
-0.14801
-0.270996
-0.228882
-0.161133
-0.117798
-0.0424194
0.00732422
0.012207
-0.022583
-0.0479126
-0.0747681
-0.0601196
-0.0469971
0.0137329
0.0900269
0.184021
0.325012
0.514526
0.622559
0.53894
0.422974
0.404358
0.22644
0.0012207
-0.0784302
-0.157471
-0.223083
-0.125427
-0.112915
-0.210876
-0.185547
-0.0723267
-0.0137329
0.0653076
0
-0.0765991
-0.0830078
-0.0537109
-0.0360107
0.00946045
0.0552368
0.0128174
-0.0598145
-0.128174
-0.222778
-0.248413
-0.184937
0.00854492
0.243835
0.341187
0.248718
-0.0418091
-0.42511
-0.636597
-0.464172
-0.2005
0.163574
0.537415
0.697937
0.729675
0.648804
0.284729
-0.119019
-0.258179
-0.267639
-0.26123
-0.240479
-0.25238
-0.165405
-0.121765
-0.143738
-0.14679
-0.13092
-0.115662
0.000610352
0.256042
0.487671
0.476379
0.427246
0.271606
-0.0427246
-0.13092
-0.032959
-0.0427246
-0.100403
-0.184631
-0.272217
-0.281067
-0.249329
-0.174561
-0.0891113
-0.0161743
-0.0115967
-0.130005
-0.33905
-0.366821
-0.288696
-0.184631
-0.0430298
0.0875854
0.331421
0.522461
0.489197
0.291138
0.116577
0.1474
0.22522
0.165405
-0.0646973
-0.314941
-0.41748
-0.389709
-0.275574
-0.158691
-0.0485229
0.0204468
0.15686
0.23407
0.246582
0.256348
0.339355
0.436096
0.343628
0.115662
0.0296021
0.16571
0.309143
0.287781
0.0195312
-0.230103
-0.324402
-0.329895
-0.303955
-0.253296
-0.162354
-0.128784
-0.132751
-0.112305
-0.107727
-0.0869751
-0.115662
-0.127258
-0.12146
-0.0524902
0.0286865
0.0140381
-0.0448608
-0.0222778
0.0137329
0.0250244
0.0576782
0.103455
0.172729
0.239258
0.273438
0.239258
0.0875854
-0.0689697
-0.0515747
0.0177002
0.0857544
0.143738
0.179443
0.26886
0.345459
0.404358
0.455933
0.496521
0.403137
0.242615
-0.15564
-0.4776
-0.487061
-0.434875
-0.466003
-0.443115
-0.388184
-0.276794
-0.189514
-0.151978
-0.140686
0.0671387
0.306702
0.392761
0.343933
0.245056
0.180359
0.305176
0.40741
0.40802
0.363464
0.204773
-0.0390625
-0.124512
-0.145569
-0.151367
-0.116272
-0.065918
-0.045166
-0.0421143
-0.057373
-0.0823975
-0.115662
-0.151062
-0.161743
-0.169373
-0.132141
-0.0872803
-0.109253
-0.0592041
-0.0177002
-0.0805664
-0.155334
-0.104065
0.0350952
0.207214
0.363464
0.4245
0.562744
0.597534
0.519714
0.454407
0.248718
-0.039978
-0.078125
-0.0143433
0.114441
0.1297
0.0643921
-0.108948
-0.0436401
0.0527954
0.0241089
-0.0357056
-0.0897217
-0.117493
-0.160828
-0.277405
-0.359802
-0.269775
-0.275574
-0.271606
-0.172424
-0.0823975
-0.0363159
-0.0177002
-0.0253296
-0.0369263
-0.00976562
0.0616455
0.101624
0.136108
0.177612
0.128174
0.0741577
0.0177002
-0.0762939
-0.191345
-0.239868
-0.248108
-0.126953
0.0723267
0.17395
0.238037
0.274353
0.246887
0.188904
0.148315
0.170288
0.295105
0.386963
0.429077
0.331116
0.0424194
-0.229492
-0.308533
-0.263062
-0.224915
-0.223694
-0.236511
-0.229187
-0.206604
-0.156555
-0.0949097
-0.0408936
-0.0222778
-0.0567627
-0.10498
-0.0790405
0
0.0286865
0.0350952
0.0253296
0.020752
0.0192261
-0.0585938
-0.100403
-0.072937
-0.111084
-0.232239
-0.287781
-0.209351
0.0460815
0.514526
0.868835
0.72998
0.401611
0.107117
-0.0534058
0.0546265
0.144958
-0.0198364
-0.185242
-0.216675
-0.133057
-0.127258
-0.148926
-0.1474
-0.114746
0.057373
0.28656
0.431824
0.430298
0.380554
0.387268
0.272217
0.0683594
0.0448608
-0.0354004
-0.219421
-0.298767
-0.353394
-0.347595
-0.3125
-0.255127
-0.211792
-0.133972
-0.020752
0.0915527
0.172729
-0.0192261
-0.224915
-0.267639
-0.224304
-0.0949097
-0.0378418
-0.062561
-0.133057
-0.171814
-0.176086
-0.154419
-0.11322
-0.0881958
-0.0866699
-0.0686646
-0.0369263
0.0247192
0.0653076
0.0546265
0.032959
0.0344849
0.0100708
0.00823975
0.00793457
-0.00152588
0.00366211
0
0.00854492
0.0100708
0.00396729
0.0408936
0.148315
0.270386
0.320129
0.318298
0.340576
0.301208
0.264893
0.350647
0.447998
0.409851
0.385132
0.130615
-0.167847
-0.265198
-0.245667
-0.19989
-0.146179
-0.0802612
-0.0701904
-0.137024
-0.276794
-0.298157
-0.287781
-0.330505
-0.33844
-0.322266
-0.343933
-0.281982
-0.121155
0.065918
0.189209
0.256042
0.205383
-0.00152588
-0.134277
-0.18219
-0.143127
-0.0747681
-0.0546265
-0.0830078
-0.197144
-0.296631
-0.287781
-0.169983
0.0363159
0.232849
0.307312
0.394897
0.527954
0.473938
0.318909
0.298462
0.161133
-0.0634766
-0.209045
-0.173645
-0.159912
-0.169067
-0.159912
-0.110168
-0.06073
0.0283813
0.0811768
0.0775146
0.0509644
-0.00854492
-0.0613403
-0.0662231
0.0839233
0.24231
0.380554
0.501709
0.481262
0.179749
-0.217285
-0.343628
-0.331421
-0.286255
-0.245972
-0.201721
-0.178528
-0.16449
-0.0869751
-0.0674438
-0.104065
-0.146484
-0.117798
-0.0692749
-0.0128174
0.0204468
0.0164795
-0.0198364
-0.0341797
-0.0650024
-0.0402832
0.0860596
0.270691
0.489197
0.681152
0.597229
0.283508
0.112305
0.145569
0.0210571
-0.166931
-0.233154
-0.213013
-0.110779
-0.0479126
-0.11261
-0.145569
-0.143127
-0.152893
-0.149536
-0.138855
-0.0942993
-0.00762939
0.100098
0.204773
0.262756
0.199585
0.0994873
0.119019
0.180969
0.269775
0.41687
0.560303
0.515442
0.0863647
-0.177307
-0.19043
-0.0100708
0.0604248
0.0778198
0.106506
0.116272
0.1297
0.220642
0.255127
0.223999
0.220642
0.176086
0.000915527
-0.0311279
-0.0271606
-0.0912476
-0.210266
-0.394897
-0.457153
-0.294189
-0.121155
0.0485229
0.153198
0.126648
-0.0643921
-0.174561
-0.187988
-0.148621
-0.138855
-0.121155
-0.112
-0.118713
-0.128174
-0.110474
-0.0634766
-0.0759888
-0.110168
-0.136108
-0.206299
-0.158997
-0.0289917
0.0769043
0.185852
0.237122
0.184631
0.0524902
-0.0262451
-0.102234
-0.122681
-0.020752
0.0344849
0.0720215
0.0982666
0.148621
0.21637
0.342712
0.535583
0.865173
1.00891
0.902405
0.422668
-0.112305
-0.480652
-0.377502
-0.302734
-0.318909
-0.335999
-0.335083
-0.266724
-0.149841
0.0216675
0.25238
0.4245
0.412292
0.274658
0.107117
-0.0643921
-0.239563
-0.343323
-0.281067
-0.224915
-0.213013
-0.0964355
-0.0473022
-0.124817
-0.205078
-0.196228
-0.122986
0.0149536
-0.0302124
-0.136414
-0.19043
-0.224915
-0.136108
-0.0250244
0.0646973
0.0680542
-0.0387573
-0.162048
-0.108948
0
0.0692749
0.169067
0.198669
0.169678
0.114441
0.0146484
-0.106201
-0.116272
-0.112915
-0.0967407
-0.0839233
-0.0421143
0.00183105
-0.0201416
-0.0292969
-0.0405884
-0.0582886
-0.0967407
-0.109558
-0.0820923
-0.0506592
-0.027771
-0.0228882
-0.0256348
-0.0320435
-0.0100708
-0.00396729
-0.00396729
0.0497437
0.140381
0.245056
0.365906
0.433655
0.387878
0.253906
0.0317383
-0.249329
-0.353699
-0.252991
-0.0613403
0.133667
0.13855
0.0814819
0.0238037
0.0161743
0.0820923
0.0427246
-0.0296021
0.0424194
0.0799561
0.0012207
0.00427246
0.109253
0.184631
0.159912
0.0881958
0.0762939
0.0375366
0.0506592
0
-0.339355
-0.620422
-0.541382
-0.232849
0.165405
0.458679
0.419922
0.181274
0.0985718
0.144348
0.0332642
-0.227661
-0.327454
-0.231018
-0.11261
-0.045166
0.0164795
0.0183105
0.0369263
0.0949097
0.204773
0.291443
0.335388
0.233459
0.0341797
-0.142822
-0.149841
-0.00946045
0.157471
0.234375
0.242004
0.137634
-0.00823975
-0.140076
-0.261536
-0.32196
-0.290222
-0.231018
-0.166321
-0.0756836
0.0283813
0.151672
0.205994
0.206604
0.141296
0.0601196
-0.0149536
-0.0140381
-0.0363159
-0.0796509
-0.13031
-0.0820923
-0.0296021
-0.0692749
-0.13916
-0.177307
-0.198059
-0.221252
-0.206909
-0.227051
-0.231628
-0.132446
-0.0418091
-0.00213623
0.222473
0.446167
0.629883
0.682678
0.360413
-0.150757
-0.167542
0.0534058
0.262146
0.353088
0.315857
0.270386
0.163879
-0.017395
0.0714111
0.0280762
-0.232544
-0.368652
-0.288696
-0.123901
0.0549316
0.189209
0.264587
0.280457
0.32074
0.297852
0.0540161
-0.202637
-0.392151
-0.577087
-0.575256
-0.378113
-0.122681
0.298462
0.606384
0.715332
0.505676
0.487366
0.476379
0.316467
-0.0869751
0.0756836
0.243835
0.297546
0.155945
0
-0.26947
-0.455627
-0.509033
-0.53894
-0.449524
-0.486755
-0.635681
-0.463257
-0.245667
-0.176392
-0.198669
-0.2005
-0.153198
-0.116882
-0.119934
-0.112305
-0.0643921
0.0405884
0.122986
0.249329
0.310669
0.170898
0.0311279
-0.00396729
-0.0680542
-0.119324
-0.065918
-0.0296021
-0.0274658
-0.0100708
-0.0454712
-0.107117
-0.126038
-0.129395
-0.135498
-0.104065
-0.105286
-0.110779
0.027771
0.1828
0.302429
0.317688
0.0411987
-0.328369
-0.386658
-0.238953
0.0518799
0.236511
0.257263
0.285645
0.271606
0.166016
0.222778
0.187683
0.124512
0.176392
0.192261
0.150452
0.136108
0.123291
0.010376
0.00274658
-0.0820923
-0.246277
-0.364685
-0.141602
0.376892
0.609741
0.613403
0.543823
0.392761
0.110168
-0.0439453
-0.0250244
0.0588989
0.0994873
-0.0088501
-0.160828
-0.401917
-0.50415
-0.384827
-0.271912
-0.0784302
0.125122
0.290833
0.352478
0.25238
0.0579834
-0.213318
-0.328674
-0.246277
-0.238342
-0.226135
-0.209045
-0.247192
-0.219116
-0.174561
-0.109863
0.0527954
0.109253
0.0973511
0.0982666
0.0784302
0.00823975
-0.0805664
-0.0646973
-0.039978
-0.0524902
-0.15686
-0.234985
-0.202942
0.0582886
0.316162
0.354919
0.378723
0.289001
0.0854492
-0.0900269
-0.235901
-0.329895
-0.348206
-0.258789
-0.0170898
0.128784
0.122986
0.0805664
0.0387573
-0.0231934
-0.0491333
-0.0476074
-0.0421143
-0.0137329
-0.0219727
-0.0427246
-0.0439453
-0.0247192
0.0912476
0.249023
0.413513
0.542297
0.601807
0.32196
0.113525
0.0857544
0.067749
-0.109558
-0.237427
0.0299072
0.135498
0.125427
0.0231934
-0.133972
-0.129089
0.0402832
0.14679
0.21698
0.109253
-0.0405884
0.0540161
0.137329
0.214539
0.214539
0.0204468
-0.0622559
-0.00152588
0.146179
0.330505
0.343018
0.0262451
-0.270081
-0.492554
-0.532837
-0.384216
-0.169373
-0.039978
-0.0924683
-0.19043
-0.271912
-0.189209
-0.134888
-0.0485229
-0.107117
-0.27832
-0.301819
-0.244446
-0.201111
-0.144958
-0.120239
-0.0790405
0.0241089
0.0570679
0.03479
0.0408936
0.0802612
0.0012207
-0.0845337
-0.0247192
0.0259399
0.0964355
0.212097
0.354309
0.447388
0.43457
0.244751
-0.0540161
-0.140991
-0.0421143
0.105286
0.178528
0.215454
0.211792
-0.0177002
-0.103455
-0.12207
-0.124817
-0.151672
-0.148926
-0.0906372
0.0219727
0.13031
0.225525
0.245972
0.195007
0.141602
0.00396729
-0.185547
-0.268555
-0.24231
-0.0830078
0.0369263
-0.0213623
-0.0839233
-0.143433
-0.141296
0.0823975
0.325317
0.422974
0.458679
0.376892
0.284119
0.387268
0.387268
0.112
-0.326233
-0.638733
-0.623779
-0.53772
-0.375061
-0.249329
-0.226746
-0.230713
-0.195923
-0.223083
-0.24231
-0.140991
-0.0332642
0.0881958
0.135193
0.123901
0.0521851
-0.0686646
-0.0430298
0.161133
0.308228
0.430603
0.373535
0.233154
0.213623
0.233154
0.307312
0.439453
0.341797
-0.0115967
-0.154419
-0.101013
-0.223389
-0.32135
-0.303345
-0.176086
-0.140381
-0.236206
-0.247498
-0.181274
-0.102539
-0.0942993
-0.107727
-0.19928
-0.309448
-0.340576
-0.332336
-0.229187
-0.126343
-0.027771
0.0982666
0.196228
0.232239
0.148315
-0.0204468
-0.0695801
-0.00610352
0.0512695
0.072937
0.0302124
-0.0115967
-0.045166
-0.0726318
-0.0985718
-0.0775146
-0.0241089
-0.0128174
-0.00701904
0.0427246
0.146179
0.262756
0.323792
0.221558
0.177917
0.0759888
0.055542
0.132446
0.11322
-0.0631714
-0.253601
-0.24231
-0.129089
0.0634766
0.473938
0.850525
0.984497
0.775757
0.115967
-0.505981
-0.779419
-0.657043
-0.371094
-0.233459
-0.0732422
-0.0436401
-0.0646973
-0.161743
-0.202942
-0.178223
-0.121765
-0.0119019
0.0897217
0.0778198
0.093689
0.102539
0.0668335
0.0650024
0.00915527
-0.274048
-0.279236
-0.235291
-0.257874
-0.321045
-0.326843
-0.233459
-0.197144
-0.159912
-0.108948
-0.0491333
0.133972
0.366821
0.473633
0.482483
0.404968
0.315247
0.252686
0.143738
0.0494385
0.00854492
0.045166
0.0616455
-0.0320435
-0.160217
-0.228577
-0.297241
-0.301208
-0.0894165
0.102234
0.149536
0.0427246
-0.071106
-0.195923
-0.128479
0.109253
0.331421
0.43396
0.375366
0.158997
-0.00793457
-0.137024
-0.195312
-0.238342
-0.260315
-0.186157
-0.0521851
0.115051
0.169678
0.0119019
-0.0787354
-0.027771
-0.0137329
-0.0509644
-0.0585938
-0.0454712
-0.0500488
-0.0613403
0.00640869
0.108948
0.125427
0.110474
0.104675
0.149841
0.220032
0.202026
0.117493
0.0686646
-0.0338745
0.0552368
0.33905
0.625
0.69458
0.470581
-0.159912
-0.495911
-0.508118
-0.353699
-0.203247
-0.0622559
-0.0332642
-0.1474
-0.338745
-0.371094
-0.310974
-0.213623
-0.0994873
0.0112915
0.115356
0.171509
0.197449
0.155945
0.0863647
0.0476074
0.117798
0.198364
0.25238
0.253296
0.214539
0.289307
0.396423
0.460205
0.425415
0.169373
-0.315247
-0.532837
-0.597229
-0.541992
-0.350037
-0.183105
-0.0265503
-0.0143433
-0.0363159
-0.0942993
-0.152588
-0.158386
-0.184631
-0.189514
-0.178833
-0.263062
-0.248108
-0.116882
-0.0793457
-0.0891113
-0.103455
-0.0881958
-0.0634766
-0.0259399
0.0384521
0.0588989
0.0244141
0.0454712
0.117493
0.202026
0.299988
0.359192
0.384216
0.370789
0.341492
0.294189
0.176697
-0.0180054
-0.107727
-0.134583
-0.123291
-0.230408
-0.224915
-0.1651
-0.195007
-0.306091
-0.33783
-0.287476
-0.173645
0.0186157
0.116882
0.151367
0.128174
0.0631714
-0.0692749
-0.176086
-0.241699
-0.205383
-0.0967407
0.0427246
0.161743
0.218201
0.286865
0.30426
0.284729
0.261536
0.238037
0.0808716
-0.0308228
-0.140076
-0.0369263
0.160828
0.144348
-0.00457764
-0.361938
-0.452576
-0.193787
-0.0253296
-0.0256348
-0.0360107
0.0192261
0.12146
0.186768
0.203857
0.12207
-0.100098
-0.206604
-0.218201
-0.223694
-0.188599
-0.0799561
0.0354004
0.178223
0.243225
0.210571
-0.0204468
-0.128479
-0.19165
-0.247192
-0.280457
-0.287476
-0.282898
-0.276794
-0.220642
-0.112
-0.0405884
-0.00976562
0.000610352
-0.0280762
0.0192261
0.0894165
0.0125122
-0.0421143
-0.0375366
-0.0790405
-0.088501
-0.0491333
-0.0247192
-0.0134277
0.00549316
0.039978
0.0430298
0.0296021
0.00610352
-0.010376
0.000915527
-0.0222778
-0.0344849
-0.0643921
-0.0808716
-0.071106
-0.0363159
0.0753784
0.206604
0.281982
0.266113
0.180664
0.0875854
0.0415039
0.119629
0.309753
0.41748
0.525818
0.594482
0.410767
0.135498
0.0149536
0.0521851
0.0408936
0.0170898
-0.0289917
-0.0857544
-0.168457
-0.22644
-0.28595
-0.381775
-0.39856
-0.282288
-0.185242
-0.0405884
0.209351
0.473633
0.657959
0.682983
0.536804
0.389404
-0.0473022
-0.562744
-0.623169
-0.456238
-0.385742
-0.36438
-0.364685
-0.342102
-0.265198
-0.13092
-0.0158691
0.043335
0.0552368
-0.0088501
-0.0579834
-0.0619507
-0.0534058
-0.0982666
-0.104065
0.00396729
0.17395
0.23468
0.169678
0.0387573
-0.012207
0.0134277
-0.00640869
-0.0161743
0.0326538
0.0827026
0.0396729
-0.045166
-0.0314331
0.00427246
-0.0311279
0.0247192
0.0579834
0.03479
0.0314331
0.0527954
0.0314331
-0.00274658
-0.0186157
-0.0140381
0.0268555
0.140381
0.232849
0.281982
0.288391
0.324707
0.395203
0.419617
0.305176
0.110168
0.0149536
0.228577
0.661011
0.939636
0.911865
0.592957
-0.0149536
-0.361328
-0.501099
-0.531006
-0.558777
-0.625
-0.560303
-0.364075
-0.221863
-0.154419
-0.0924683
-0.0628662
-0.0610352
-0.0982666
-0.125122
-0.121155
-0.0341797
0.13031
0.239868
0.268555
0.153198
-0.151062
-0.176392
-0.0839233
0.00366211
0.149841
0.17395
0.211487
0.275574
0.304565
0.259399
0.0268555
-0.305786
-0.374756
-0.256042
-0.0772095
0.0469971
0.132751
0.239563
0.270081
0.205994
0.0540161
-0.0982666
-0.124817
-0.0942993
-0.105591
-0.0576782
0.000915527
0.0613403
0.0753784
0.16571
0.207825
0.210876
0.309143
0.3479
0.434875
0.557556
0.359802
-0.0201416
-0.227661
-0.437317
-0.455017
-0.222168
-0.0250244
0.0341797
0.0186157
-0.0112915
-0.0671387
-0.133972
-0.157776
-0.0930786
0.103149
0.250854
0.361023
0.346985
0.245972
0.0735474
-0.102234
-0.196228
-0.18219
-0.151978
-0.127563
-0.121765
-0.171509
-0.158997
-0.10376
-0.0561523
-0.0268555
-0.0497437
-0.0680542
-0.0753784
-0.0637817
-0.0518799
-0.00946045
-0.0088501
0.00732422
0.00823975
0.0537109
0.136108
0.120239
0.0521851
-0.0128174
-0.0189209
0.0930786
0.21759
0.291138
0.280457
0.0415039
-0.193176
-0.256653
-0.24231
-0.111084
-0.0152588
0.0534058
0.185852
0.269165
0.260315
0.214539
0.0949097
-0.133057
-0.247803
-0.162659
-0.0723267
0.0177002
0.00732422
0.0613403
0.287781
0.561829
0.799561
0.77179
0.450134
0.106812
-0.261536
-0.25177
-0.0512695
0
-0.119629
-0.215454
-0.28595
-0.274353
-0.183716
-0.0616455
0.0363159
0.0906372
-0.00549316
-0.0723267
0.000610352
0.085144
0.149841
0.169067
0.102234
-0.0842285
-0.1651
-0.0964355
-0.0915527
-0.118103
-0.0146484
0.0918579
0.158081
0.187073
0.0436401
-0.0140381
0.0445557
0.197449
0.340271
0.219727
-0.0231934
-0.169678
-0.218811
-0.216064
-0.238953
-0.220642
-0.133972
-0.0668335
-0.045166
-0.0808716
-0.0665283
-0.0393677
-0.0436401
-0.128174
-0.255737
-0.20874
-0.0198364
0.114136
0.16449
0.0241089
-0.127258
-0.166321
-0.0305176
0.106506
0.183716
0.168457
0.141907
0.065918
-0.0411987
-0.121155
-0.148621
-0.120544
-0.0769043
0.0442505
0.198669
0.25177
0.296936
0.19989
0.0894165
0.0598145
0.0765991
0.129395
0.131836
0.0708008
0.0363159
-0.0564575
-0.09552
-0.12207
-0.128174
-0.155029
-0.125427
-0.0112915
0.0350952
0.0619507
0.0222778
0.0320435
0.0488281
0.0241089
0.0579834
0.12207
0.120544
0.0689697
0.0289917
-0.0646973
-0.201416
-0.295715
-0.334778
-0.300293
-0.185852
0.03479
0.221558
0.259705
0.13031
-0.220642
-0.408936
-0.403748
-0.384827
-0.283203
-0.0793457
0.0741577
0.137939
0.0723267
-0.0283813
-0.0698853
-0.0234985
0.0622559
0.0924683
0.0445557
0.0201416
-0.0357056
-0.0637817
-0.0543213
-0.0588989
0.0119019
0.181885
0.333557
0.353699
0.329285
0.180969
-0.0234985
-0.0320435
0.10437
0.088501
0.0457764
-0.0326538
-0.143433
-0.186157
-0.209656
-0.26001
-0.266724
-0.209045
-0.150452
-0.0476074
0.0695801
0.23407
0.318298
0.250244
0.0222778
-0.292969
-0.389709
-0.202942
0.138855
0.399475
0.446167
0.238647
-0.101318
-0.343018
-0.315552
-0.211487
-0.106812
-0.0363159
-0.0717163
-0.179443
-0.227051
-0.206604
-0.0982666
0.0531006
0.19989
0.281982
0.19165
0.0653076
0.0601196
0.0949097
0.118408
0.158386
0.141296
0.0778198
-0.0695801
-0.130615
0.00549316
0.0253296
-0.0552368
-0.110168
-0.169373
-0.189819
-0.214233
-0.267334
-0.272522
-0.215759
-0.0753784
0.0582886
0.0912476
0.117798
0.19928
0.188293
0.0753784
-0.0296021
-0.0430298
-0.050354
-0.071106
-0.0372314
-0.0558472
-0.0857544
-0.0866699
-0.0906372
-0.14679
-0.164795
-0.153809
-0.107727
0.0311279
0.169373
0.258789
0.314636
0.292053
0.117188
-0.020752
-0.128479
-0.240479
-0.315247
-0.314331
-0.185852
-0.015564
0.103149
0.105896
0.055542
-0.0100708
-0.0857544
-0.0918579
-0.0875854
-0.09552
-0.0567627
-0.00762939
0.0195312
0.125732
0.179138
0.197144
0.202942
0.153198
0.0354004
0.000305176
0.0256348
0.0543213
0.0616455
0.0866699
0.112
0.109863
0.122986
0.138855
0.0793457
0.0314331
0.0271606
0.0238037
-0.0396729
-0.0732422
-0.145569
-0.190735
-0.150757
-0.126648
-0.137024
-0.0265503
0.0720215
0.133667
0.121765
0.0924683
0.15625
0.303345
0.47821
0.661316
0.610046
0.321045
-0.0198364
-0.258484
-0.297852
-0.262451
-0.238037
-0.213928
-0.205688
-0.197754
-0.188293
-0.153198
-0.0756836
-0.0436401
-0.0942993
-0.20874
-0.315247
-0.318604
-0.183716
0.0439453
0.196533
0.26886
0.239563
0.197449
0.142212
0.108032
0.085144
0.0250244
-0.0619507
-0.0665283
0.0189209
-0.0119019
-0.0744629
-0.0738525
-0.012207
-0.0247192
0.0244141
0.154114
0.188293
0.106812
-0.0570679
-0.232849
-0.361633
-0.254517
0.0253296
0.183716
0.230408
0.202026
0.123901
0.102539
0.0717163
-0.0845337
-0.221252
-0.229187
-0.203247
-0.180359
-0.144958
-0.114746
-0.085144
-0.0219727
0.0509644
0.0997925
0.108643
0.0704956
0.0265503
0.0540161
0.149841
0.180664
0.141296
0.10376
0.0692749
0.0518799
0.0357056
0.045166
0.116882
0.229492
0.376587
0.550537
0.516052
0.40802
0.32074
0.155334
-0.017395
-0.071106
0.0262451
0.0695801
0.0561523
0.0109863
-0.153809
-0.26001
-0.254822
-0.19043
-0.162964
-0.173645
-0.142822
-0.170898
-0.280762
-0.337219
-0.320435
-0.403137
-0.325012
-0.0167847
0.149231
0.124512
0.0961304
0.126648
0.191956
0.181274
0.138245
0.0662231
0.0134277
-0.0134277
-0.0411987
-0.0839233
-0.106201
-0.0421143
0.0186157
0.0366211
0.0436401
-0.00701904
-0.043335
-0.0613403
-0.0491333
0.000305176
0.0296021
0.0363159
0.00701904
0.0268555
0.0790405
0.0973511
0.218811
0.345764
0.368652
0.349121
0.285034
0.0393677
-0.100098
-0.0897217
-0.0759888
-0.085144
-0.11261
-0.179138
-0.20813
-0.155334
-0.093689
0.0244141
0.145569
0.244751
0.30365
0.392456
0.464172
0.486145
0.382996
0.238342
0.102844
0.0604248
-0.0799561
-0.308838
-0.423279
-0.37323
-0.323181
-0.291138
-0.264587
-0.332336
-0.396423
-0.356445
-0.272522
-0.0933838
0.110779
0.211182
0.180969
0.083313
0.0259399
-0.0698853
-0.0476074
0.0994873
0.101624
0.098877
0.146484
0.125427
0.163269
0.238342
0.202942
0.140686
0.140076
0.13092
0.114441
-0.0466919
-0.176697
-0.195312
-0.166321
-0.0408936
0.0604248
0.0143433
-0.0308228
-0.0888062
-0.141602
-0.0616455
0.0622559
0.100098
0.145264
0.161743
0.0869751
-0.0210571
-0.110168
-0.155334
-0.137634
-0.0256348
0.0973511
0.148315
0.105286
0.0875854
0.0799561
0.0564575
0.00854492
-0.159302
-0.32959
-0.297852
-0.166321
-0.0421143
0.00274658
0.00274658
-0.00244141
-0.00793457
-0.0311279
-0.105591
-0.140381
-0.117188
-0.0448608
-0.0213623
-0.00915527
0.0311279
0.022583
0.0454712
0.0213623
0.000305176
0.00213623
0.0619507
0.0872803
0.146179
0.193481
0.169373
0.0515747
-0.0842285
-0.0921631
-0.00366211
-0.0567627
-0.0576782
-0.0436401
-0.0616455
-0.0631714
0.012207
0.178528
0.30304
0.370789
0.350037
0.32135
0.354309
0.372925
0.272522
0.159607
-0.0183105
-0.175781
-0.175476
-0.0997925
-0.0527954
-0.0228882
0.00579834
-0.0149536
-0.078125
-0.149841
-0.201111
-0.287781
-0.318604
-0.326233
-0.27832
-0.144653
0.00427246
0.152588
0.185242
0.141907
0.0601196
0.116882
0.225525
0.174561
0.172119
0.287781
0.295105
0.19043
0.212708
0.105286
-0.191956
-0.439148
-0.361938
-0.0961304
0.0466919
0.0268555
-0.0869751
-0.221558
-0.276489
-0.23468
-0.106201
0.0363159
0.111694
0.105286
0.0515747
-0.0259399
-0.071106
-0.134277
-0.154724
-0.127258
-0.106506
-0.0793457
0.0640869
0.227356
0.283203
0.284424
0.204163
0.179443
0.155945
0.0311279
0
0.00427246
-0.0753784
-0.206604
-0.263977
-0.226135
-0.17395
-0.18219
-0.174561
-0.197754
-0.161743
-0.0820923
0.00488281
0.0357056
0.0619507
0.0640869
0.0540161
0.0411987
-0.00579834
-0.0531006
-0.0863647
-0.0680542
0.0296021
0.102844
0.212097
0.34668
0.324097
0.289612
0.302429
0.318909
0.448914
0.550842
0.595093
0.582581
0.468445
0.256958
0.149841
0.112
0.0115967
-0.198669
-0.426331
-0.497131
-0.515137
-0.487366
-0.367737
-0.220947
-0.116272
-0.0424194
-0.062561
-0.209961
-0.270691
-0.237427
-0.123901
-0.0357056
0.0109863
0.0180054
-0.0210571
-0.0686646
-0.19104
-0.192261
-0.139771
-0.06073
0.0213623
0.0765991
0.0582886
0.0216675
-0.0213623
-0.0119019
-0.00213623
-0.00915527
0.00762939
0.0341797
0.0595093
0.0927734
0.0823975
0.0317383
-0.00946045
-0.03479
-0.0436401
-0.0946045
-0.0686646
-0.0558472
-0.055542
-0.0161743
0.022583
0.0265503
0.0836182
0.151672
0.151062
0.240784
0.429993
0.668945
0.994263
1.10596
0.934143
0.664978
0.344238
0.0125122
-0.0686646
-0.184937
-0.394592
-0.586853
-0.684204
-0.527649
-0.369263
-0.321045
-0.311584
-0.287476
-0.274963
-0.267639
-0.198975
-0.119019
-0.115051
-0.0228882
0.113831
0.10376
-0.0305176
-0.152893
-0.170593
-0.193787
-0.189819
-0.123291
-0.050354
-0.0177002
0.0418091
0.0604248
0.00762939
0.039978
0.0863647
0.123901
0.172424
0.166931
0.123901
-0.0292969
-0.139771
-0.1474
-0.123596
-0.0854492
-0.0271606
0.0231934
0.00976562
0.0543213
0.0985718
0.175476
0.297546
0.291138
0.211182
0.126038
0.0473022
-0.219421
-0.187073
-0.0350952
0.0375366
0.121155
0.160217
0.0588989
-0.0531006
-0.137329
-0.176086
-0.111694
0.0292969
0.145569
0.253906
0.292053
0.238342
0.143127
-0.128174
-0.361633
-0.338135
-0.101624
0.0860596
0.214539
0.241699
0.11322
0.0772095
0.0735474
0.0164795
0.0189209
-0.0457764
-0.0686646
-0.12146
-0.1828
-0.222473
-0.203552
-0.171509
-0.145264
-0.0845337
-0.0384521
-0.0119019
0.0256348
0.0750732
0.115967
0.126038
0.123291
0.0872803
0.115967
0.0799561
0.0643921
0.0753784
0.0485229
0.0286865
0.0198364
-0.0845337
-0.192871
-0.238953
-0.178833
-0.09552
-0.00671387
0.015564
-0.0167847
-0.0570679
-0.0799561
-0.0827026
-0.043335
0.0854492
0.172119
0.195007
0.226746
0.313721
0.299072
0.195007
0.202332
0.138855
-0.0787354
-0.250549
-0.274353
-0.1651
0.0241089
0.138855
0.179138
0.174255
0.0765991
-0.0402832
-0.166321
-0.254211
-0.34668
-0.326233
-0.21759
-0.136108
-0.0222778
0.0512695
0.0204468
-0.0100708
-0.0427246
-0.173645
-0.276184
-0.0912476
0.12146
0.209961
0.137634
0.0256348
-0.0939941
-0.14801
-0.0524902
0.0997925
0.171814
0.165405
0.125427
0.0817871
-0.00732422
-0.0650024
-0.0634766
-0.0839233
-0.138245
-0.128784
-0.104065
-0.0845337
-0.0631714
0.00274658
0.0482178
0.0378418
-0.0100708
-0.0564575
-0.0857544
-0.102844
-0.0735474
-0.0228882
-0.0149536
-0.045166
-0.0732422
-0.0869751
-0.0860596
-0.0366211
0.039978
0.112
0.142517
0.139771
0.139771
0.0970459
0.0271606
0.0234985
0.0961304
0.329895
0.548706
0.686035
0.618286
0.330811
-0.0177002
-0.316467
-0.410767
-0.318604
-0.0720215
0.12207
0.262756
0.35614
0.212402
-0.0268555
-0.165405
-0.339661
-0.340881
-0.265198
-0.127258
-0.0189209
0.0473022
0.038147
0.0213623
-0.0732422
-0.229797
-0.280762
-0.329895
-0.362244
-0.309753
-0.250244
-0.158081
-0.0198364
0.142822
0.259705
0.305786
0.158691
0.0796509
0.0378418
-0.0921631
-0.180969
-0.12085
-0.0616455
-0.111389
-0.148315
-0.114746
-0.0234985
0.000305176
-0.0265503
-0.00762939
-0.00762939
-0.0189209
0.0686646
0.205994
0.351562
0.388489
0.27832
0.109558
0.0637817
0.0997925
0.130615
0.191345
0.153503
0.0683594
-0.00457764
-0.0732422
-0.162354
-0.174866
-0.140076
-0.135803
-0.127869
-0.122375
-0.154724
-0.218811
-0.241394
-0.245361
-0.215454
-0.120239
0.00518799
0.083313
0.12207
0.134583
0.0604248
-0.0463867
-0.0186157
0.0515747
0.16571
0.308838
0.32959
0.225525
0.055542
-0.0198364
-0.0613403
-0.117798
-0.162354
-0.176086
-0.147705
-0.0546265
-0.00274658
-0.015564
-0.0210571
-0.0354004
-0.0830078
-0.090332
-0.0332642
0.102234
0.140991
0.171814
0.235291
0.153198
0.0299072
0.0384521
0.00549316
0.043335
0.110474
0.234375
0.326538
0.333862
0.207214
-0.0100708
-0.149536
-0.180359
-0.164795
-0.123596
-0.085144
-0.0457764
-0.105591
-0.152283
-0.144043
-0.122375
-0.134888
-0.131531
-0.151978
-0.169678
-0.149231
-0.0842285
0.0549316
0.142517
0.130615
0.125122
0.152893
0.143433
0.11261
0.168762
0.187988
0.106812
-0.0216675
-0.0689697
-0.039978
-0.157776
-0.35614
-0.358582
-0.265808
-0.071106
0.143738
0.158081
0.0830078
0.00244141
-0.085144
-0.0631714
0.00244141
0.0622559
0.0326538
-0.0161743
-0.00732422
-0.0244141
-0.0823975
-0.169067
-0.191956
-0.138245
-0.0332642
0.105896
0.215454
0.329285
0.432739
0.524292
0.508118
0.220947
-0.0704956
-0.110779
-0.0894165
-0.162354
-0.224915
-0.245056
-0.212402
-0.141907
-0.108032
-0.0585938
0.0149536
0.0396729
0.0674438
0.0695801
0.0604248
-0.0131226
-0.0915527
-0.0482178
0.0100708
0.0735474
0.12085
0.0656128
0.0744629
0.128479
0.11322
0.105896
0.189819
0.318909
0.336914
0.304871
0.181274
-0.00213623
-0.0897217
-0.119629
-0.17395
-0.266418
-0.330505
-0.325928
-0.195923
-0.128174
-0.0738525
-0.0354004
-0.0430298
-0.0805664
-0.0860596
-0.11261
-0.205688
-0.255127
-0.254822
-0.256348
-0.237122
-0.0927734
0.109558
0.341492
0.516052
0.518494
0.458069
0.374756
0.240173
0.0491333
-0.09552
-0.134888
-0.0143433
0.153198
0.264893
0.314941
0.251465
0.0201416
-0.0671387
-0.133667
-0.126038
-0.0823975
0.00274658
0.101318
0.0808716
0.00762939
-0.0552368
-0.0601196
-0.107117
-0.121155
-0.0631714
-0.00213623
-0.0765991
-0.180664
-0.219421
-0.178528
-0.108643
-0.0326538
0.0106812
0.0866699
0.201721
0.135498
-0.0961304
-0.265808
-0.372925
-0.353088
-0.243225
-0.111084
-0.0613403
-0.00244141
-0.00915527
0.0436401
0.123901
0.0912476
0.0796509
0.0457764
0.0265503
0.0424194
0.100403
0.166321
0.18158
0.149231
-0.038147
-0.185242
-0.125732
0.0479126
0.255737
0.38269
0.297241
0.124817
-0.0579834
-0.200195
-0.141602
-0.00701904
0.0964355
0.0531006
-0.0180054
0.0338745
-0.00610352
-0.129089
-0.167847
-0.126648
-0.0854492
-0.0296021
0.0906372
0.171204
0.247803
0.285339
0.299377
0.223389
0.0878906
-0.0564575
-0.200195
-0.241699
-0.13092
0.0378418
0.109558
0.0808716
-0.00488281
-0.113831
-0.0894165
0.0543213
0.107117
0.128784
0.0231934
-0.174866
-0.316467
-0.344543
-0.278015
-0.158081
-0.123901
-0.109863
-0.122986
-0.125122
-0.0765991
-0.0323486
0.0109863
0.0674438
0.134888
0.0875854
-0.0598145
-0.167236
-0.242615
-0.209351
-0.0344849
0.0985718
0.128174
0.138245
0.126953
0.111694
0.133667
0.0540161
-0.0265503
-0.0415039
-0.0280762
-0.0128174
0.0167847
0.0466919
0.0643921
0.0753784
0.0827026
0.13855
0.234375
0.304565
0.300293
0.244446
0.163269
0.0250244
-0.106201
-0.125732
-0.0137329
0.15564
0.262146
0.381775
0.488892
0.459595
0.236816
-0.0537109
-0.237732
-0.347595
-0.429993
-0.449829
-0.420532
-0.40802
-0.472107
-0.329895
-0.205994
-0.196533
-0.116272
0.136414
0.393372
0.483398
0.43396
0.296936
0.173035
0.0515747
0.0820923
0.168152
0.11322
-0.09552
-0.179443
-0.187683
-0.194702
-0.132141
-0.0134277
0.115356
0.189819
0.160217
-0.00427246
-0.193176
-0.261536
-0.197144
-0.0616455
0.0674438
0.146179
0.25116
0.314026
0.219421
0.0512695
-0.050354
-0.0799561
-0.088501
0.00366211
0.100403
0.0363159
-0.124817
-0.185547
-0.11322
0.000305176
0.0436401
-0.00915527
-0.0576782
-0.0811768
-0.0610352
-0.0366211
-0.0598145
-0.0836182
-0.172119
-0.229492
-0.317078
-0.253601
-0.0662231
0.136108
0.101624
0.0521851
0.0662231
0.0442505
0.0244141
-0.0192261
-0.0680542
-0.0527954
-0.0296021
-0.0466919
-0.0540161
0.0222778
0.0476074
0.108032
0.195007
0.28717
0.384521
0.384827
0.265503
0.171814
0.0445557
-0.133057
-0.210266
-0.160522
-0.0299072
0.0942993
0.212097
0.269775
0.192566
-0.0256348
-0.155029
-0.0430298
0.209045
0.440369
0.595093
0.539551
0.175476
-0.0930786
-0.140991
-0.1297
-0.172729
-0.213013
-0.198364
-0.23407
-0.197144
-0.169983
-0.195007
-0.238342
-0.257568
-0.268555
-0.284119
-0.238647
-0.168152
-0.155945
-0.180359
-0.167847
-0.176086
-0.1297
-0.0357056
-0.0161743
0.0265503
0.0894165
0.125122
0.163269
0.196533
0.222168
0.22644
0.212708
0.169678
0.126648
0.112
0.00457764
-0.0875854
-0.13855
-0.11322
-0.0796509
0.0180054
0.0454712
-0.0402832
-0.137024
-0.144653
0.027771
0.276489
0.429077
0.566406
0.609741
0.399475
0.200806
0.18219
0.176697
0.0811768
-0.0378418
-0.0939941
-0.205383
-0.274048
-0.205383
-0.0753784
0.0210571
-0.0283813
-0.0869751
-0.152588
-0.107117
-0.0436401
0.0323486
0.0668335
0.0415039
0.0170898
0.0485229
0.136414
0.187378
0.252686
0.256042
0.16449
0.0894165
0.0527954
-0.106812
-0.299072
-0.218811
-0.0405884
0.0192261
-0.0198364
-0.134888
-0.279236
-0.266724
-0.104675
0.119934
0.223083
0.240173
0.083313
-0.0619507
-0.0817871
0.00915527
0.0289917
0.0201416
-0.0964355
-0.196228
-0.179443
-0.0341797
0.0982666
0.155945
0.142212
-0.0219727
-0.159607
-0.164795
-0.0814819
-0.0494385
-0.0540161
-0.0546265
-0.00518799
0.0512695
0.169678
0.32196
0.387573
0.292664
0.238037
0.0396729
-0.196228
-0.298157
-0.240784
-0.222778
-0.206604
-0.197449
-0.205383
-0.102539
0.0125122
0.00152588
-0.0704956
-0.0228882
0.0674438
0.134888
0.154724
0.0686646
-0.0540161
-0.020752
0.105286
0.187683
0.149231
0.198059
0.124817
0.0186157
0.0210571
-0.0100708
-0.159302
-0.198059
-0.237122
-0.194092
-0.0613403
0
0.0387573
0.0302124
-0.0393677
-0.133057
-0.168762
-0.133667
-0.0469971
0.16449
0.388184
0.407104
0.431824
0.323486
0.111389
-0.0982666
-0.361023
-0.441589
-0.297546
-0.221863
-0.240173
-0.232239
-0.238342
-0.228577
-0.1651
-0.150146
-0.13855
-0.116882
-0.0939941
0.0421143
0.133667
0.194702
0.212097
0.241394
0.292053
0.311584
0.372009
0.376282
0.191956
-0.0201416
-0.177612
-0.262451
-0.172119
-0.101624
-0.0363159
0.000915527
0.0967407
0.219421
0.335083
0.335388
0.293274
0.0927734
-0.0405884
0.0518799
0.159302
0.232849
0.207825
-0.0134277
-0.271301
-0.32074
-0.290527
-0.176392
-0.0360107
0.0564575
0.104065
0.0720215
-0.113831
-0.240784
-0.174866
0.00305176
0.133972
0.148315
0.062561
-0.0534058
-0.134583
-0.147095
-0.022583
0.0369263
0.0213623
-0.0378418
-0.0830078
0.020752
0.154419
0.22644
0.1297
-0.200195
-0.47821
-0.435486
-0.239258
-0.00610352
0.233154
0.412598
0.482178
0.402222
0.343628
0.258789
0.0863647
-0.0268555
-0.110779
-0.0891113
0.0302124
-0.00457764
-0.188293
-0.305786
-0.297546
-0.209656
-0.195007
-0.17334
-0.0686646
0.0427246
0.0970459
0.0546265
0.0808716
0.105896
0.0848389
0.00579834
-0.0247192
-0.0177002
-0.0390625
-0.0427246
0.0552368
0.109253
-0.0149536
-0.128174
-0.0650024
0.0354004
0.109558
0.170288
0.00213623
-0.240173
-0.35614
-0.289612
-0.117798
0.0643921
0.253601
0.378113
0.31189
0.221863
0.219116
0.065918
-0.0949097
-0.17395
-0.146179
-0.03479
-0.0201416
-0.110779
-0.133057
-0.0772095
0.0595093
0.132446
0.206909
0.224915
0.119324
-0.0479126
-0.113525
-0.139465
-0.0808716
0.101624
0.358582
0.528259
0.556335
0.449524
0.209656
0.0848389
0.105286
0.0665283
-0.0405884
-0.229492
-0.368347
-0.259094
-0.223694
-0.187988
-0.133057
-0.17334
-0.022583
0.0231934
-0.0714111
-0.117798
-0.0857544
-0.045166
0.000915527
0.0405884
0.0296021
-0.0137329
-0.0436401
-0.108337
-0.144348
-0.0958252
-0.020752
-0.0546265
-0.157471
-0.191345
-0.144348
-0.0790405
0.0271606
0.0479126
-0.0106812
-0.176086
-0.234985
-0.168457
0.0253296
0.21759
0.246887
0.221252
0.0949097
-0.0177002
0.0186157
0.10498
0.152588
0.125732
0.110779
0.203247
0.279541
0.283508
0.235291
0.0952148
-0.177307
-0.246887
-0.187378
-0.0952148
0.00823975
0.114746
0.140686
0.135193
0.0979614
0.0354004
0.071106
0.143127
0.102844
0.143127
0.232239
0.209045
0.0125122
-0.147095
-0.20813
-0.209351
-0.101929
0.0854492
0.179138
0.23468
0.177307
0.0482178
-0.119629
-0.176392
-0.10498
-0.0967407
-0.189209
-0.22583
-0.245056
-0.26001
-0.191345
-0.0949097
0.0320435
0.113831
0.072937
0.0839233
0.0814819
0.0332642
-0.0100708
-0.0830078
-0.161133
-0.19043
-0.185852
-0.183105
-0.128479
-0.11261
-0.0994873
-0.0527954
0.0131226
0.0717163
0.0842285
0.0592041
0.00976562
0.00518799
0.0671387
0.0756836
0.0662231
0.139465
0.246277
0.217285
0.186462
0.146179
0.0485229
-0.017395
0.0314331
0.185242
0.202026
-0.0369263
-0.196533
-0.0448608
0.171204
0.353394
0.42511
0.282898
-0.0692749
-0.164795
-0.184021
-0.156555
-0.136414
-0.141602
-0.0747681
0.0146484
0.0427246
0.0344849
0.0317383
-0.0292969
-0.124512
-0.144348
-0.134888
-0.137024
-0.168152
-0.222168
-0.166321
0.0396729
0.0939941
0.103149
0.143738
0.141602
0.155334
0.0741577
0.00213623
-0.010376
-0.110474
-0.299988
-0.292358
-0.208435
-0.153503
-0.0360107
0.0314331
0.0338745
0.0311279
0.0387573
-0.0198364
-0.0384521
0.108948
0.26062
0.35675
0.287476
0.0894165
-0.0772095
-0.137024
-0.0662231
-0.00152588
0.0592041
0.0982666
0.103455
0.0762939
-0.00213623
-0.0674438
0.0302124
0.188904
0.370483
0.420227
0.306396
0.13855
0.0814819
0.00762939
0.15686
0.419006
0.579224
0.383301
0.00427246
-0.270386
-0.238037
-0.194702
-0.306702
-0.27832
-0.108337
0.139465
0.275879
0.188599
0.0457764
-0.149841
-0.295715
-0.238953
-0.200195
-0.216064
-0.229492
-0.169067
-0.110168
-0.0708008
-0.0128174
0.0289917
0.0317383
-0.0387573
-0.0292969
0.00366211
0.00579834
0.0244141
0.0396729
-0.0137329
-0.0906372
-0.118103
-0.107727
-0.0799561
-0.0485229
-0.0308228
-0.039978
-0.0857544
-0.0637817
-0.0961304
-0.127563
-0.0967407
-0.0592041
-0.0991821
-0.102234
-0.0915527
-0.098877
-0.0384521
0.0662231
0.127563
0.140381
0.0830078
0.00366211
0.020752
0.0805664
0.272217
0.447083
0.471802
0.434265
0.366516
0.239563
0.176392
0.0753784
0
-0.0506592
-0.160522
-0.232544
-0.241394
-0.20813
-0.115662
0.0732422
0.172729
0.153503
0.0357056
-0.112915
-0.154114
0.0177002
0.213318
0.328979
0.30365
0.0265503
-0.209961
-0.231018
-0.25116
-0.22583
-0.250854
-0.24231
-0.169067
-0.0411987
0.09552
0.189819
0.141296
0.0793457
0.0390625
-0.0323486
-0.110779
-0.144348
-0.155334
-0.143738
-0.106506
-0.119934
-0.09552
-0.0482178
-0.0247192
0.0961304
0.281372
0.429993
0.413818
0.472412
0.353394
0.221863
0.0759888
-0.0448608
-0.133362
-0.188904
-0.162659
-0.0588989
0.0701904
0.245667
0.362854
0.346985
0.236511
0.000305176
-0.236206
-0.232849
-0.124817
-0.106812
-0.0997925
-0.112305
-0.162048
-0.288086
-0.296936
-0.22522
-0.224915
-0.221252
-0.154724
-0.071106
-0.0204468
-0.0210571
-0.0546265
-0.0457764
0.0790405
0.198669
0.280151
0.259705
0.257874
0.350342
0.53009
0.687561
0.420837
0.0311279
-0.134888
-0.25116
-0.254822
-0.239258
-0.292664
-0.328979
-0.3125
-0.205383
-0.0808716
0.0488281
0.110474
0.131531
0.24292
0.202332
0.0534058
-0.12146
-0.185852
-0.218201
-0.275574
-0.291748
-0.261841
0.0241089
0.340576
0.484619
0.499573
0.332336
0.0167847
-0.1297
-0.245972
-0.386658
-0.363464
-0.285034
-0.207214
-0.157471
-0.230103
-0.282898
-0.250244
-0.120239
0.0897217
0.248718
0.401001
0.460205
0.549622
0.541382
0.371094
0.185852
0.0302124
-0.139465
-0.274048
-0.32196
-0.219421
-0.156555
-0.129395
-0.167542
-0.146179
-0.0845337
0.00762939
0.06073
0.0350952
0.0146484
0.000610352
-0.0341797
-0.0549316
-0.0585938
-0.0350952
-0.0137329
-0.0216675
0.0012207
0.0427246
0.0610352
0.102844
0.179749
0.301819
0.375977
0.379028
0.296936
0
-0.291443
-0.426331
-0.39978
-0.309143
-0.169373
-0.13092
-0.100403
0.0216675
0.190735
0.290833
0.358887
0.297241
0.186157
0.0732422
0.00366211
-0.0234985
0.0491333
0.143127
0.148315
0.0897217
0.0238037
0.123901
0.270081
0.33783
0.21698
0.0112915
-0.116577
-0.0952148
0.0372314
0.0765991
0.0332642
0.0244141
0.00946045
0.0653076
0.329895
0.647888
0.744019
0.591431
0.106201
-0.444031
-0.704651
-0.653381
-0.553894
-0.432739
-0.207214
-0.0540161
0.0137329
-0.0540161
-0.264282
-0.276184
-0.093689
0.172729
0.309143
0.22522
0.235291
0.323181
0.234375
0.124207
0.0769043
0.0335693
-0.0332642
-0.102844
-0.142517
-0.241089
-0.357361
-0.335999
-0.176086
0.0671387
0.321045
0.346985
0.231628
-0.0720215
-0.348816
-0.340271
-0.26123
-0.262756
-0.204773
-0.0924683
-0.0341797
-0.020752
0.0363159
0.0967407
0.138855
0.124207
0.0512695
-0.0308228
-0.143127
-0.203857
-0.165405
-0.13031
-0.0140381
0.102539
0.0698853
0.00366211
-0.0482178
-0.0866699
-0.126343
-0.119934
-0.0500488
0.0497437
0.105896
0.132446
0.148621
0.107727
0.0665283
0.0845337
0.114441
0.0646973
-0.0387573
-0.045166
-0.0137329
-0.0662231
-0.101624
-0.0927734
-0.0521851
-0.0585938
-0.107422
-0.187073
-0.1474
-0.0875854
0.000915527
0.153503
0.109558
0.0506592
0.0744629
0.123901
0.150146
0.150452
0.259094
0.498352
0.567322
0.54718
0.456848
0.207214
0.0802612
0.00762939
-0.160828
-0.205383
-0.127258
0.0317383
0.189819
0.305481
0.204773
-0.115051
-0.21637
-0.266418
-0.287781
-0.335083
-0.350647
-0.333862
-0.326233
-0.375671
-0.482178
-0.523987
-0.46814
-0.405579
-0.15625
-0.00152588
0.0741577
0.180969
0.309143
0.380554
0.333252
0.212708
0.0250244
-0.0769043
-0.114441
-0.122681
-0.1474
-0.163879
-0.110168
-0.0592041
-0.0708008
-0.017395
0.0234985
-0.0646973
-0.13031
-0.0668335
0.0384521
0.124817
0.174255
0.11261
0.0448608
0.0457764
0.0814819
0.175476
0.293274
0.357666
0.232849
0.0323486
-0.0390625
0.0411987
0.108032
0.314331
0.426941
0.357361
0.0723267
-0.186462
-0.215454
-0.0778198
0.0796509
0.162659
0.126038
-0.0534058
-0.22644
-0.245667
-0.216064
-0.152893
-0.0720215
-0.038147
-0.0531006
-0.0976562
-0.137329
-0.161133
-0.119934
-0.0436401
0.00457764
-0.0378418
-0.093689
-0.0933838
-0.0491333
0.0524902
0.118103
0.11322
0.0524902
-0.0765991
-0.11322
-0.102234
-0.125122
-0.150452
-0.127258
-0.0613403
0.100708
0.162048
-0.00274658
-0.352173
-0.383911
-0.218506
-0.0778198
0.0939941
0.276184
0.33783
0.326843
0.335083
0.237122
0.171509
0.314026
0.304871
0.0964355
-0.0830078
-0.192566
-0.229187
-0.205078
-0.0628662
0.108643
0.238953
0.334167
0.364685
0.334778
0.26062
0.198364
0.104065
0.032959
-0.050354
-0.197449
-0.24353
-0.288391
-0.375366
-0.454407
-0.504761
-0.500793
-0.458069
-0.313721
-0.0735474
0.0500488
0.188904
0.388794
0.656128
0.787354
0.640869
0.33905
-0.050354
-0.402832
-0.576477
-0.386047
-0.136108
-0.032959
-0.0601196
-0.0701904
-0.0765991
-0.0942993
-0.0753784
-0.0759888
-0.0827026
-0.111694
-0.0567627
0.154724
0.325012
0.435181
0.431519
0.19043
-0.172424
-0.26825
-0.183716
0.00152588
0.165405
0.170593
0.126038
0.0204468
-0.0234985
0.0967407
0.159607
0.159607
0.104675
-0.0244141
-0.128784
-0.0985718
-0.0161743
0.0509644
0.109558
0.0921631
-0.0302124
-0.154724
-0.283508
-0.415039
-0.534363
-0.472717
-0.206299
0.0396729
0.045166
-0.0265503
-0.0698853
-0.150146
-0.209961
-0.211182
-0.14801
-0.0906372
-0.0369263
0.0942993
0.32959
0.449524
0.436401
0.392456
0.226135
-0.0872803
-0.148926
-0.1297
-0.178528
-0.17395
-0.117493
-0.0491333
-0.0732422
-0.123901
-0.140686
-0.090332
0.00610352
0.0897217
0.090332
0.0485229
-0.00457764
-0.0158691
0.0289917
0.13916
0.151672
0.133057
0.144958
0.195923
0.25116
0.211182
0.0543213
-0.137024
-0.26825
-0.291138
-0.166626
-0.0540161
-0.0195312
0.0408936
0.202026
0.440369
0.749207
1.00739
1.13434
1.0083
0.411072
-0.352478
-0.705261
-0.616455
-0.448608
-0.334778
-0.291443
-0.293579
-0.315857
-0.365906
-0.356445
-0.276794
-0.186768
-0.102539
-0.128479
-0.204773
-0.276184
-0.152588
0.197144
0.47821
0.762634
0.838623
0.555725
0.322876
0.141602
0.0592041
-0.0912476
-0.1828
-0.280457
-0.351868
-0.354004
-0.299377
-0.0939941
0.0985718
0.210266
0.177612
0.0466919
-0.0256348
-0.193787
-0.349426
-0.219421
-0.0332642
0.0521851
0.0570679
0.0863647
0.0839233
0.0332642
-0.0314331
-0.0665283
-0.0448608
-0.0402832
-0.0585938
-0.0738525
-0.0741577
-0.0653076
-0.0527954
-0.072937
-0.102844
-0.0567627
-0.0180054
0.012207
0.0332642
0.0485229
0.0408936
0.0790405
0.136108
0.203552
0.217285
0.0494385
-0.071106
-0.121155
-0.170593
-0.18219
-0.0549316
0.0259399
0.0646973
0.218201
0.437317
0.518799
0.504761
0.404053
0.120544
0
-0.0143433
-0.0259399
-0.122681
-0.19989
-0.102539
-0.0161743
0.0714111
0.168152
0.0195312
-0.0921631
0.0369263
0.205383
0.34729
0.315552
-0.0115967
-0.210571
-0.222473
-0.266724
-0.319519
-0.337524
-0.309448
-0.242615
-0.184326
-0.178528
-0.15686
-0.0402832
0.133057
0.193176
0.15564
0.14679
0.0921631
0.227661
0.318298
0.385437
0.380249
0.245056
-0.0308228
-0.133667
-0.124817
-0.154724
-0.282288
-0.420227
-0.395508
-0.33905
-0.248718
-0.171204
-0.133362
-0.0906372
-0.0430298
-0.00518799
0.0473022
0.102539
0.16571
0.211182
0.163879
-0.0170898
-0.120239
-0.101013
-0.117798
-0.146484
-0.11261
-0.022583
0.140991
0.25177
0.301208
0.252075
0.10437
-0.065918
-0.0949097
-0.110779
-0.130005
-0.0784302
-0.0674438
-0.0405884
-0.0454712
-0.121765
-0.14801
-0.0164795
0.155945
0.280762
0.218811
0.153809
0.139465
0.17395
0.201416
0.215759
0.184937
0.205078
0.205688
0.183716
0.112915
0.0296021
-0.00640869
0.0387573
0.13916
0.150146
0.100098
-0.0106812
-0.146484
-0.311279
-0.381165
-0.326233
-0.237122
-0.148315
-0.231018
-0.234375
-0.134583
-0.0430298
0.00274658
0.050354
0.0360107
-0.0314331
-0.172424
-0.189514
-0.127869
-0.0756836
-0.0152588
0.0769043
0.325928
0.487366
0.468445
0.354614
0.146179
-0.124207
-0.365295
-0.476074
-0.360107
-0.101318
0.0192261
-0.0238037
-0.136414
-0.162048
-0.105896
-0.00274658
0.101624
0.126648
0.088501
0.0186157
0.0701904
0.167236
0.211792
0.246887
0.251465
0.155029
-0.00274658
-0.0247192
0.0601196
0.189209
0.236206
0.0613403
-0.19043
-0.201721
-0.152588
-0.123596
-0.0640869
-0.0933838
-0.142212
-0.115356
0.022583
0.107117
0.098877
-0.0195312
-0.132751
-0.183105
-0.147095
-0.12207
-0.0817871
0.0180054
0.133972
0.275879
0.332336
0.296631
0.135498
0.0247192
0.15686
0.348511
0.346375
0.172424
-0.0430298
-0.234985
-0.10376
0.199585
0.346069
0.402222
0.353088
0.0088501
-0.228577
-0.300903
-0.310364
-0.245361
-0.151062
-0.14679
-0.222168
-0.288086
-0.265503
-0.269775
-0.245667
-0.205078
-0.139465
-0.0234985
0.139771
0.256958
0.302734
0.231934
-0.0146484
-0.255737
-0.318604
-0.209656
-0.102234
-0.0549316
-0.0289917
-0.0308228
-0.00579834
-0.00274658
-0.0183105
-0.0280762
-0.0671387
-0.0973511
-0.119019
-0.108948
-0.125732
-0.158386
-0.150146
-0.0473022
0.128479
0.218201
0.204773
0.153198
0.0765991
0.0231934
0.0119019
-0.0308228
0.0439453
0.180359
0.25238
0.33844
0.352478
0.275269
0.0863647
-0.0164795
-0.088501
-0.148926
-0.0906372
-0.0527954
-0.0405884
0.0268555
0.181885
0.419006
0.613403
0.488281
0.275269
0.193787
-0.0332642
-0.0549316
0.0753784
-0.0619507
-0.32959
-0.513916
-0.452881
-0.289917
-0.168762
-0.0595093
0.0372314
0.196228
0.337524
0.211792
0.0219727
-0.124817
-0.253601
-0.267639
-0.223694
-0.102539
0.032959
0.123291
0.19989
0.28656
0.22522
0.200195
0.122986
0.0186157
-0.0958252
-0.203857
-0.299988
-0.22583
-0.0585938
0.0421143
0.109253
0.0949097
0.00762939
-0.0860596
-0.0811768
0.0323486
0.175171
0.285645
0.338745
0.323486
0.216064
0.0259399
-0.0762939
-0.167236
-0.168152
-0.119934
-0.107422
-0.173035
-0.20752
-0.245361
-0.302429
-0.3302
-0.245056
-0.0595093
0.115051
0.113831
0.00946045
-0.0674438
-0.139465
-0.172424
-0.101318
0.00549316
0.0442505
0.0305176
-0.00427246
-0.0326538
-0.027771
-0.0158691
-0.0570679
-0.105896
-0.105286
-0.0769043
0.0363159
0.183105
0.28595
0.289001
0.256042
0.270081
0.365295
0.523682
0.635376
0.696106
0.719604
0.625916
0.348816
0.110474
-0.0457764
-0.244446
-0.501709
-0.644836
-0.648499
-0.543823
-0.445251
-0.388184
-0.307312
-0.267639
-0.259094
-0.0827026
0.0592041
0.0878906
0.0442505
0.0457764
0.168457
0.3479
0.390625
0.115967
-0.148621
-0.233154
-0.195618
-0.172424
-0.131226
-0.0643921
-0.0112915
0.115967
0.190125
0.0869751
-0.062561
-0.229492
-0.446167
-0.462646
-0.229492
-0.0402832
0.000610352
-0.012207
0.0198364
0.0698853
0.103455
0.101929
0.127869
0.152588
0.208435
0.317078
0.426636
0.389099
0.227966
0.057373
-0.0695801
-0.209045
-0.269775
-0.240173
-0.226746
-0.223694
-0.169067
-0.118103
-0.0692749
0.0314331
0.137329
0.204163
0.231018
0.263367
0.248718
0.179443
0.155945
0.0500488
-0.128479
-0.124817
-0.0393677
-0.085144
-0.209656
-0.243835
-0.224304
-0.109863
0.0769043
0.286255
0.368347
0.32135
0.137634
-0.06073
-0.281067
-0.311584
-0.224915
-0.0665283
0.115356
0.174255
0.137329
0.0799561
0.0213623
-0.0494385
0.0546265
0.166626
0.119324
-0.0296021
-0.166321
-0.129089
-0.0674438
0.0540161
0.180359
0.127869
-0.0143433
0.0317383
0.0973511
0.0732422
-0.00610352
0.027771
0.0469971
0.0582886
0.0656128
0.0320435
-0.0012207
-0.0741577
-0.220947
-0.353699
-0.360413
-0.289001
-0.18219
-0.108948
-0.00915527
-0.015564
-0.032959
-0.00335693
0.122986
0.318909
0.494385
0.474854
0.446472
0.274353
0.038147
-0.0274658
-0.00518799
-0.00854492
-0.105591
-0.184326
-0.157776
-0.132751
-0.135803
-0.13855
-0.0469971
0.0653076
0.23468
0.406494
0.383301
0.212097
0.0338745
-0.0869751
0.0338745
0.18219
0.239563
0.185852
0.169678
0.21698
0.264893
0.116577
-0.0341797
-0.169983
-0.358276
-0.492554
-0.439758
-0.284729
-0.177917
-0.152893
-0.158081
-0.160828
-0.176392
-0.181885
-0.158386
-0.105591
-0.0784302
-0.0595093
-0.0323486
0.0314331
0.0424194
0.0192261
-0.00610352
-0.0418091
-0.0762939
-0.101624
-0.0601196
0.0180054
0.104065
0.122986
0.106201
0.0698853
0.00427246
-0.0201416
0.0366211
0.141602
0.155334
0.0854492
0.0662231
-0.022583
-0.012207
0.0717163
0.0714111
0.0842285
0.149536
0.174561
0.242004
0.292053
0.272217
0.159302
-0.00274658
-0.155945
-0.100403
-0.0842285
-0.0787354
0.100098
0.220642
0.19928
0.196533
0.143433
0.0860596
0.167847
0.304871
0.333252
0.228577
0.0485229
-0.138855
-0.273132
-0.336609
-0.220032
0.00946045
0.223389
0.368958
0.284729
0.0335693
-0.275269
-0.30426
-0.210266
-0.168762
-0.252075
-0.283813
-0.249023
-0.231323
-0.206299
-0.166321
-0.0906372
-0.0216675
0.0115967
0.0216675
0.0140381
-0.0491333
-0.103455
-0.12207
-0.133057
-0.114441
-0.0305176
0.0680542
0.132751
0.195312
0.23407
0.123291
-0.0112915
-0.0534058
-0.0540161
-0.0149536
0.0268555
0.0308228
0.0717163
0.205383
0.348511
0.43335
0.463562
0.415039
0.246887
-0.0738525
-0.289612
-0.380859
-0.403137
-0.36499
-0.159607
0.0360107
0.119019
0.0247192
-0.0296021
0.0341797
0.133972
0.26062
0.376892
0.293274
0.100708
-0.0881958
-0.183105
-0.206909
-0.13855
-0.0411987
0.0686646
0.143433
0.191345
0.093689
0
0.0674438
0.101929
0.0390625
-0.0827026
-0.0839233
0.0579834
0.301208
0.558472
1.0022
1.05469
0.697327
0.215149
-0.249634
-0.588684
-0.733337
-0.691833
-0.574646
-0.438232
-0.271912
-0.158997
-0.0765991
-0.0592041
-0.100708
-0.198669
-0.386658
-0.478821
-0.397034
-0.289307
-0.254517
-0.12207
-0.0671387
-0.0311279
0.00305176
0.000915527
-0.00244141
-0.0146484
-0.0143433
0.0180054
0.0717163
0.098877
0.0784302
0.0558472
0.0411987
0.0527954
0.0366211
0.0582886
0.0805664
0.0753784
0.0134277
-0.0442505
-0.0741577
-0.0997925
-0.103455
-0.140991
-0.156555
-0.0811768
0.0177002
0.0515747
0.0564575
0.0866699
0.0973511
0.0808716
0.0323486
0.0305176
0.127869
0.344849
0.542603
0.62561
0.583801
0.413513
0.188599
0.0558472
-0.00915527
0.0012207
0.0369263
0.0491333
-0.0289917
-0.121765
-0.19989
-0.119324
0.027771
0.000915527
-0.0408936
0.0662231
0.145264
0.169983
0.228882
0.163269
-0.176392
-0.381165
-0.429993
-0.446777
-0.44281
-0.423279
-0.294495
-0.163269
-0.109253
-0.140076
-0.174561
-0.201721
-0.177917
-0.127258
-0.0482178
0.0808716
0.112
0.138245
0.229187
0.302124
0.395508
0.437927
0.32196
0.0631714
-0.114746
-0.180664
-0.00762939
0.213318
0.364685
0.353088
0.17395
-0.112
-0.170288
-0.101013
-0.0476074
-0.0222778
-0.0271606
-0.116272
-0.170593
-0.172424
-0.231628
-0.278931
-0.291748
-0.285339
-0.228577
-0.133362
-0.0738525
-0.0765991
-0.0756836
-0.0750732
-0.0610352
-0.0653076
-0.0418091
0.00640869
0.0253296
0.0338745
0.0317383
0.0424194
0.0680542
0.0924683
0.0683594
0.0564575
0.00946045
-0.0357056
-0.0598145
-0.0912476
-0.00701904
0.132141
0.238953
0.415344
0.539246
0.549622
0.37384
0.166626
0.144958
0.0817871
-0.0759888
-0.21637
-0.258484
-0.23407
-0.167236
-0.0457764
-0.0106812
-0.0747681
-0.0592041
0.0582886
0.098877
0.0756836
-0.0598145
-0.143433
-0.130615
-0.130615
-0.0814819
-0.0549316
0.00610352
0.0341797
-0.00518799
-0.022583
-0.0231934
-0.0714111
-0.09552
-0.0854492
-0.0497437
0.00213623
0.0442505
0.039978
-0.0320435
-0.0790405
-0.00671387
-0.062561
-0.0720215
-0.0744629
-0.0991821
-0.112305
-0.0912476
-0.0509644
-0.039978
-0.062561
-0.0622559
-0.0576782
-0.0674438
-0.0735474
-0.0845337
-0.0808716
-0.0698853
-0.0601196
-0.0469971
-0.0299072
0.00488281
0.127258
0.264587
0.39917
0.462952
0.46936
0.415649
0.354309
0.328369
0.249939
0.158386
0.050354
-0.177612
-0.430603
-0.549622
-0.617981
-0.414124
-0.12207
0.015564
0.0570679
0.0469971
0.0222778
0.0546265
0.225525
0.304871
0.169373
0.133667
0.116577
-0.0106812
-0.098877
-0.0643921
-0.0241089
0.0906372
0.116577
0.113831
0.0613403
0.0210571
0.125427
0.314941
0.591736
0.780945
0.810242
0.658569
0.380554
0.0289917
-0.253601
-0.469055
-0.655823
-0.684509
-0.646667
-0.520935
-0.385437
-0.334778
-0.335388
-0.296021
-0.22583
-0.176086
-0.122375
-0.0836182
-0.0308228
-0.0158691
-0.0570679
-0.134888
-0.169678
-0.174561
-0.159302
-0.1297
-0.0497437
0.0238037
0.057373
0.0601196
0.0537109
0.0305176
0.0299072
0.0088501
0.00640869
-0.00213623
0.00579834
0.0088501
0.0134277
0.0088501
0.0012207
-0.0112915
-0.0402832
-0.00579834
0.0335693
0.115051
0.186157
0.257263
0.293579
0.270691
0.256042
0.151367
0.0405884
0.055542
0.157776
0.296631
0.398254
0.432434
0.37262
0.177002
-0.172424
-0.361633
-0.314636
-0.126038
0.113525
0.26886
0.395203
0.437317
0.388184
0.32196
0.205994
0.220947
0.267029
0.241089
-0.0164795
-0.233765
-0.374146
-0.500793
-0.531311
-0.505981
-0.411072
-0.321655
-0.246887
-0.152893
-0.112305
-0.114136
-0.0842285
-0.0762939
-0.0219727
0.0482178
0.0863647
0.0897217
-0.0216675
-0.265198
-0.374451
-0.311584
-0.179443
-0.0283813
0.0512695
0.0747681
0.0912476
0.098877
0.103149
0.133667
0.179138
0.13855
0.0906372
0.0164795
-0.0723267
-0.108337
-0.0195312
0.233154
0.48584
0.516968
0.298462
0.0714111
0.119629
0.207214
0.171814
0.0619507
-0.110168
-0.30304
-0.344849
-0.24231
-0.129395
-0.085144
-0.0631714
-0.0128174
0.0881958
0.169678
0.221252
0.211182
0.125427
0.0772095
0.157166
0.278015
0.327148
0.220032
0.0985718
0.0616455
0.0408936
0.000915527
-0.0924683
-0.214233
-0.258484
-0.124512
-0.0332642
0.022583
0.0854492
-0.0146484
-0.062561
0.067749
0.186768
0.19928
0.0759888
-0.0341797
-0.178833
-0.390015
-0.480042
-0.431213
-0.324707
-0.177612
-0.153503
-0.160522
-0.127258
-0.140381
-0.127563
-0.0820923
-0.0253296
-0.00732422
0.0186157
0.0485229
0.0338745
-0.0109863
-0.0149536
-0.0726318
-0.0448608
0
-0.00457764
-0.0344849
-0.0991821
-0.143127
-0.0314331
0.257263
0.481262
0.483093
0.490112
0.505371
0.529175
0.762634
1.06659
1.04675
0.769958
0.0582886
-0.555115
-0.788574
-0.722656
-0.585327
-0.344238
-0.213928
-0.187683
-0.186157
-0.227661
-0.180054
-0.093689
-0.0375366
0.0314331
0.105286
0.16571
0.1828
0.188599
0.187378
0.146484
-0.032959
-0.180664
-0.331116
-0.505676
-0.515442
-0.417786
-0.335693
-0.185852
-0.0686646
-0.0405884
-0.0387573
-0.0216675
0.0158691
0.0494385
0.0964355
0.116882
0.160828
0.137634
0.0439453
0.00335693
-0.0149536
-0.0314331
-0.0244141
-0.0588989
-0.126038
-0.09552
0.0332642
0.136414
0.258484
0.304565
0.214233
0.113525
-0.0088501
-0.0961304
-0.0866699
-0.045166
0.00396729
0.0576782
0.100098
0.18219
0.250854
0.215759
0.184021
0.13916
0.123596
0.283508
0.608826
0.783997
0.753784
0.653381
0.368958
-0.0271606
-0.129089
-0.289612
-0.510254
-0.606995
-0.53894
-0.434875
-0.345459
-0.386047
-0.493164
-0.505676
-0.447693
-0.314636
-0.128479
0.0106812
0.0622559
0.0265503
-0.0106812
-0.0466919
-0.0402832
-0.0430298
0.00457764
0.0787354
0.142212
0.140686
0.0393677
-0.0665283
-0.113525
-0.106506
-0.112
-0.0637817
0.0268555
0.0445557
-0.00946045
-0.0469971
-0.0442505
-0.0314331
-0.0256348
-0.00762939
-0.00244141
-0.0192261
-0.00274658
0.000915527
-0.00183105
-0.00488281
-0.0125122
-0.0112915
-0.027771
-0.0546265
-0.0537109
0.0106812
0.0674438
0.118408
0.110779
0.055542
0.055542
0.083313
0.109863
0.124207
0.134888
0.16449
0.210266
0.291748
0.463562
0.653381
0.733948
0.758667
0.61615
0.480347
0.396423
0.386658
0.285339
-0.142822
-0.764465
-0.874634
-0.570068
-0.369568
-0.267334
-0.239258
-0.184631
-0.1474
-0.154419
-0.111694
-0.119934
-0.0933838
-0.130615
-0.168152
-0.135803
-0.151672
-0.296936
-0.384827
-0.34668
-0.178833
-0.0509644
0.0570679
0.0881958
0.017395
-0.085144
-0.0708008
-0.0418091
-0.0424194
-0.0613403
-0.0912476
-0.110168
-0.102234
-0.101013
-0.135193
-0.127258
-0.0134277
0.109253
0.158081
0.125122
0.0973511
0.0778198
0.0393677
0.0106812
0.0463867
0.168457
0.372925
0.594177
0.718994
0.56427
0.295105
-0.015564
-0.297852
-0.329895
-0.100098
0.0613403
0.133972
0.126953
0.0942993
0.0695801
0.0512695
-0.0137329
-0.158997
-0.209351
-0.154114
-0.0442505
0.155334
0.388489
0.546875
0.609436
0.498962
0.156555
-0.0119019
-0.153503
-0.362549
-0.383301
-0.334778
-0.296631
-0.282593
-0.319519
-0.37323
-0.326233
-0.187378
-0.00213623
0.1828
0.237427
0.0448608
-0.168457
-0.301819
-0.301819
-0.137329
-0.0466919
-0.0619507
0.00213623
0.0192261
0.0930786
0.157776
0.118713
0.0418091
-0.0180054
-0.0637817
-0.0686646
-0.0427246
0.0839233
0.175781
0.205688
0.238953
0.270386
0.258484
0.176086
0.0570679
-0.0299072
-0.0613403
-0.0778198
-0.0317383
0.0341797
0.160217
0.299072
0.276794
0.306091
0.32959
0.16571
0.146179
0.171814
-0.0167847
-0.154419
-0.245667
-0.470276
-0.561829
-0.463562
-0.251465
-0.057373
0.152588
0.39093
0.437317
0.384216
0.282898
-0.0964355
-0.403137
-0.394897
-0.252075
0.00366211
0.226746
0.40863
0.478516
0.317688
0.0344849
-0.124207
-0.141296
-0.213623
-0.306396
-0.316162
-0.272217
-0.221252
-0.109253
0.00518799
0.065918
0.123596
0.189514
0.189819
0.155945
-0.0643921
-0.245667
-0.349426
-0.326233
-0.238953
-0.0924683
0.0216675
-0.0305176
-0.022583
0.0469971
0.133667
0.132141
0.072937
0.039978
-0.022583
-0.124512
-0.184021
-0.198364
-0.108643
0.0363159
0.197144
0.385437
0.435486
0.2771
0.0845337
0.0387573
0.112
0.136414
0.0961304
0.0543213
0.0494385
0.101318
0.0222778
-0.0473022
-0.00152588
0.0909424
0.0759888
0.0704956
0.0271606
-0.101929
-0.189209
-0.129395
-0.0360107
0.0228882
0.0167847
-0.0817871
-0.220337
-0.216064
-0.145569
-0.0784302
-0.00152588
0.0918579
0.24353
0.498352
0.574951
0.502625
0.382996
0.157471
0.0546265
0.0634766
0.0558472
-0.0372314
-0.178528
-0.110474
-0.0961304
-0.267029
-0.397034
-0.400696
-0.387268
-0.375061
-0.349121
-0.272522
-0.131531
-0.0234985
0.00396729
0.0747681
0.162964
0.136414
0.088501
0.192261
0.279236
0.313416
0.116882
-0.0357056
-0.193176
-0.25177
-0.194397
-0.134277
-0.0952148
-0.0686646
-0.0708008
-0.0717163
-0.0772095
-0.0418091
-0.00610352
0.0631714
0.0979614
0.149536
0.205994
0.285339
0.228271
0.0802612
-0.0274658
-0.0753784
-0.109253
-0.101624
-0.111694
-0.135498
-0.0881958
-0.0360107
-0.039978
-0.0198364
0
-0.0421143
-0.0265503
-0.0469971
-0.174866
-0.122375
0.0723267
0.236206
0.43457
0.657043
0.668945
0.518494
0.393066
0.114746
-0.0769043
-0.12207
-0.130615
-0.19165
-0.166626
-0.154724
-0.0521851
0.0415039
0.0714111
-0.00823975
-0.143738
-0.275574
-0.273438
-0.280151
-0.232239
-0.157776
-0.117493
-0.050354
-0.0161743
-0.0143433
-0.0769043
-0.174866
-0.2005
-0.198975
-0.187683
-0.118713
-0.0106812
0.0930786
0.240479
0.358276
0.423889
0.415955
0.276184
0.0997925
0.0805664
-0.00946045
-0.010376
0.123596
0.0973511
-0.0326538
-0.134583
-0.224915
-0.269165
-0.251465
-0.188599
-0.0915527
-0.0134277
-0.0189209
-0.0274658
0.0537109
0.12085
0.0961304
0.0820923
0.157471
0.256958
0.344849
0.389709
0.249023
0.0814819
-0.0479126
-0.0314331
0.163269
0.341492
0.426941
0.361023
0.171204
-0.0213623
-0.146179
-0.323181
-0.478821
-0.463257
-0.444336
-0.385742
-0.234375
-0.0671387
0.100098
0.187683
0.152283
0.0567627
0.0479126
0.0198364
-0.0219727
-0.110779
-0.25116
-0.312805
-0.257568
-0.205383
-0.0918579
-0.0311279
-0.0201416
0.000305176
0.0778198
0.197449
0.310364
0.373535
0.344238
0.18158
-0.00457764
-0.15625
-0.273132
-0.302124
-0.266418
-0.206909
-0.100403
-0.0012207
0.104675
0.195923
0.274963
0.316467
0.27771
0.221863
0.169373
0.0265503
-0.159912
-0.314331
-0.275269
-0.203552
-0.104675
-0.0119019
0.0527954
0
-0.0439453
-0.0601196
-0.0741577
-0.0631714
-0.0601196
-0.120544
-0.142822
-0.137939
-0.0958252
-0.045166
-0.0119019
-0.00762939
-0.0106812
-0.0421143
-0.0396729
-0.0463867
-0.067749
-0.0820923
-0.0506592
-0.00579834
0.0436401
0.152893
0.302734
0.541077
0.641785
0.597839
0.499878
0.228271
-0.0457764
-0.0500488
-0.162964
-0.323792
-0.393982
-0.349121
-0.296326
-0.213928
-0.212708
-0.133972
-0.0158691
0.0747681
0.0708008
0.0888062
0.0460815
-0.00610352
-0.010376
-0.0546265
-0.123901
-0.122375
-0.072937
-0.0430298
0.0561523
0.19043
0.23407
0.183716
0.162964
0.116577
-0.0708008
-0.113831
-0.0445557
0.0918579
0.252991
0.422363
0.454407
0.290527
0.173035
0.141602
0.0674438
-0.148621
-0.270691
-0.253906
-0.233154
-0.229797
-0.213928
-0.217285
-0.196533
-0.180054
-0.159607
-0.159607
-0.163574
-0.0933838
0.022583
0.120544
0.232239
0.403442
0.514832
0.535889
0.46936
0.270996
-0.0674438
-0.410767
-0.496826
-0.357971
-0.198059
-0.10376
-0.0827026
-0.112915
-0.121155
-0.0924683
-0.0897217
-0.158081
-0.210266
-0.141602
-0.101929
-0.0778198
-0.0765991
-0.0500488
-0.0222778
0.00305176
0.0302124
0.027771
0.0750732
0.167236
0.187683
0.167542
0.187988
0.141907
0.124817
0.265503
0.296936
0.161133
-0.111694
-0.329895
-0.36377
-0.263977
-0.0622559
0.149231
0.206604
0.19043
0.125427
0.0350952
-0.0439453
-0.134583
-0.230103
-0.253601
-0.212402
-0.128784
0.0500488
0.186768
0.135193
0.0262451
-0.0167847
-0.0241089
-0.00671387
0.0378418
0.12146
0.15564
0.247192
0.393372
0.437317
0.428772
0.342407
0.0875854
-0.122986
-0.207825
-0.265808
-0.230103
-0.154114
-0.170288
-0.197449
-0.197144
-0.180664
-0.197449
-0.184326
-0.151367
-0.124207
-0.0674438
-0.043335
-0.0216675
0.0265503
0.0692749
0.136719
0.245361
0.258484
0.110168
-0.0613403
-0.125122
-0.0619507
-0.0323486
-0.0466919
-0.0296021
-0.0234985
-0.0228882
-0.012207
0.0256348
0.0866699
0.176392
0.21759
0.230408
0.319519
0.40863
0.379333
0.256042
-0.0823975
-0.600281
-0.686951
-0.307617
0.0827026
0.336609
0.43335
0.301208
0.0723267
-0.178223
-0.291748
-0.316772
-0.210266
-0.0466919
-0.0128174
-0.0567627
-0.0595093
-0.039978
-0.06073
-0.0561523
-0.00640869
0.0192261
0.055542
0.0836182
0.0848389
0.0814819
0.136414
0.0979614
-0.0256348
-0.017395
0.0256348
-0.055542
-0.121765
-0.143738
-0.0906372
-0.0448608
-0.0164795
-0.0387573
-0.0698853
-0.116272
-0.267334
-0.336304
-0.281372
-0.163269
-0.0958252
-0.0726318
-0.0308228
0.0259399
0.0872803
0.167542
0.213623
0.228577
0.247803
0.233154
0.191345
0.0738525
0.0106812
0.00915527
0.0311279
0.00823975
-0.0778198
-0.132141
-0.143127
-0.112915
-0.0250244
0.0894165
0.124207
0.152893
0.171204
0.189819
0.175781
0.147095
0.130005
0.0473022
-0.0637817
-0.0698853
-0.0610352
0.0778198
0.144653
0.205078
0.162964
-0.0183105
-0.187073
-0.171814
-0.0616455
0.0314331
0.126343
0.137024
0.10498
-0.0442505
-0.176697
-0.237732
-0.213013
-0.0942993
-0.00732422
-0.0149536
0.038147
0.10437
0.0619507
0.0601196
0.0949097
0.123596
0.0473022
-0.0228882
-0.104675
-0.10498
-0.12146
-0.1474
-0.155029
-0.12085
-0.0497437
0.0259399
-0.0177002
-0.071106
-0.0869751
-0.0772095
-0.0588989
-0.0704956
-0.0863647
-0.110168
-0.104675
-0.071106
-0.0402832
-0.0265503
-0.0131226
0.0149536
0.0244141
0.000915527
-0.0473022
-0.0866699
-0.0921631
-0.0726318
-0.0479126
0.0222778
0.0515747
0.0619507
0.0524902
0.0198364
-0.0787354
-0.149536
-0.155334
-0.0869751
0.0540161
0.151062
0.197449
0.233765
0.264893
0.315247
0.379639
0.491028
0.573425
0.542603
0.447083
0.301819
0.150146
0.0949097
0.0314331
-0.0604248
-0.125122
-0.248718
-0.310059
-0.270996
-0.260925
-0.224915
-0.150146
-0.142517
-0.157776
-0.0881958
-0.0457764
-0.0372314
-0.137634
-0.13092
-0.0695801
0.0140381
0.0765991
0.0854492
-0.043335
-0.108032
-0.0985718
-0.108948
0.0256348
0.0790405
-0.00274658
-0.0741577
-0.122986
-0.0506592
0.0653076
0.0582886
-0.0448608
-0.149536
-0.202332
-0.241394
-0.221252
-0.126648
0.00793457
0.0820923
0.109253
0.189514
0.310974
0.441589
0.487976
0.438538
0.426025
0.349426
0.19165
-0.00396729
-0.183105
-0.317078
-0.437927
-0.415649
-0.283508
-0.175171
-0.215454
-0.386963
-0.502319
-0.390625
-0.100708
0.359192
0.661011
0.695496
0.522766
0.188904
-0.093689
-0.270996
-0.255737
-0.197449
-0.125122
-0.00488281
0.110474
0.210266
0.261536
0.27771
0.085144
-0.198364
-0.419617
-0.411072
-0.186462
0.00549316
0.050354
-0.027771
-0.134277
-0.149231
-0.071106
0.0872803
0.262146
0.435486
0.517273
0.363464
0.0543213
-0.189209
-0.279541
-0.288391
-0.283203
-0.281067
-0.276489
-0.235901
-0.188293
-0.116272
-0.0601196
0.0363159
0.0708008
0.0357056
0.0210571
0.0311279
0.0985718
0.121155
0.118408
0.137634
0.142212
0.0695801
-0.00518799
-0.038147
-0.0570679
-0.0845337
-0.0900269
-0.0942993
-0.0588989
-0.0134277
0.015564
0.0704956
0.121155
0.162048
0.177612
0.124512
-0.0250244
-0.145264
-0.156555
-0.0469971
0.0012207
0.0592041
0.124207
0.119324
0.0384521
-0.00793457
