0.0546265
0.0466919
0.0250244
0.0189209
0.00610352
0.00396729
-0.027771
0.0253296
0.0805664
-0.0592041
-0.23407
-0.292053
-0.254822
-0.203857
-0.178223
-0.0888062
-0.0564575
-0.062561
-0.0549316
-0.0100708
0.0219727
0.0518799
0.0140381
-0.0140381
0.0149536
0.0488281
0.0991821
0.202332
0.287476
0.300903
0.262756
0.230103
0.249939
0.227356
0.131836
-0.0344849
-0.166016
-0.320435
-0.402527
-0.257263
-0.108643
-0.0588989
-0.0790405
-0.0848389
-0.050354
-0.0427246
-0.085144
-0.115662
-0.0601196
-0.0134277
-0.0100708
0.0167847
0.0448608
0.0946045
0.143738
0.0518799
-0.00946045
0.0125122
0.0692749
0.0753784
0.0744629
0.00396729
-0.107727
-0.170288
-0.161133
-0.151672
-0.147095
-0.169983
-0.219421
-0.247192
-0.161438
-0.0219727
0.0796509
0.146179
0.155029
0.122986
-0.0128174
-0.00915527
0.0991821
0.152588
0.1651
0.120544
0.0372314
-0.0564575
-0.0933838
-0.116577
-0.117188
-0.0964355
-0.062561
-0.0125122
0.0582886
0.0765991
0.0439453
0.0695801
0.101624
0.187378
0.259705
0.278015
0.235291
0.152893
-0.0161743
-0.23468
-0.244446
-0.230713
-0.244446
-0.238342
-0.222473
-0.0531006
0.133667
0.269775
0.307007
0.209045
-0.0378418
-0.198975
-0.172119
-0.0601196
0.0354004
0.138245
0.152588
0.022583
-0.090332
-0.150452
-0.203857
-0.1828
-0.139771
-0.0622559
0.0143433
0.133667
0.233154
0.296631
0.318298
0.241089
-0.0128174
-0.320435
-0.38269
-0.219116
-0.104065
-0.0976562
-0.0875854
-0.0524902
-0.00579834
-0.00762939
-0.0201416
-0.0326538
-0.0473022
-0.0436401
-0.0378418
-0.0671387
-0.11322
-0.135803
-0.105286
-0.0518799
0.0524902
0.0973511
0.0546265
-0.00457764
-0.0354004
-0.050354
0.0305176
0.186462
0.272522
0.288696
0.289001
0.272522
0.249939
0.178223
0.0421143
-0.13916
-0.173645
-0.212708
-0.303345
-0.205383
-0.0186157
0.101624
0.129089
0.119019
0.119934
0.13916
0.144653
0.163574
0.218201
0.246887
0.102539
-0.100708
-0.170288
-0.0723267
-0.0231934
-0.0494385
-0.201416
-0.299988
-0.336304
-0.26886
-0.100708
-0.00579834
0.0357056
0.0866699
0.0817871
0.0570679
0.0106812
0.00701904
0.00823975
-0.0708008
-0.0732422
0.00854492
-0.00335693
-0.141296
-0.240173
-0.203857
-0.149231
-0.0915527
-0.0717163
-0.0354004
-0.0192261
0.0222778
0.0473022
0.00305176
-0.0308228
-0.0466919
-0.0732422
-0.0894165
-0.120544
-0.0778198
0.0970459
0.36499
0.631714
0.728455
0.644836
0.466309
0.180664
-0.0933838
-0.249939
-0.352783
-0.388489
-0.393982
-0.33905
-0.328369
-0.32959
-0.28656
-0.192566
-0.0466919
0.098877
0.207214
0.263367
0.238342
0.0598145
-0.0494385
-0.0650024
-0.102234
-0.144348
-0.121155
-0.100708
-0.0811768
-0.0888062
-0.0958252
-0.0646973
0.0350952
0.210266
0.358582
0.423584
0.319824
0.169983
-0.0891113
-0.214539
-0.225525
-0.162048
-0.0997925
0.0289917
0.144958
0.152588
0.136108
0.0900269
-0.00793457
-0.0875854
-0.114441
-0.114136
-0.105286
-0.105896
-0.0991821
-0.093689
-0.0537109
-0.0100708
0.0112915
0.0213623
0.0637817
0.0808716
0.06073
-0.0283813
-0.116882
-0.115662
-0.115051
-0.124817
-0.149841
-0.142212
-0.110474
-0.0872803
-0.0466919
-0.0332642
-0.0668335
-0.0674438
-0.0506592
-0.00854492
-0.012207
0.0604248
0.183105
0.301208
0.367737
0.368958
0.26123
0.135193
0.0845337
0.0497437
0.107117
0.208435
0.231628
0.155945
0.0860596
0.0485229
0.0375366
0.0418091
0.0189209
0.0430298
0.0805664
0.0827026
0.0268555
-0.0479126
-0.162354
-0.307922
-0.370483
-0.265198
-0.152283
-0.0863647
-0.0149536
0.137024
0.232239
0.192566
0.178833
0.128174
-0.0411987
-0.137024
-0.177612
-0.194397
-0.220947
-0.221252
-0.152283
-0.0918579
-0.0344849
0.00518799
0.134583
0.261841
0.296631
0.246887
0.196228
0.147095
0.085144
-0.0436401
-0.206604
-0.250549
-0.216675
-0.212097
-0.224915
-0.230103
-0.213013
-0.184326
-0.188904
-0.174866
-0.139465
-0.0445557
0.0753784
0.178528
0.227966
0.169373
-0.0378418
-0.134888
-0.0900269
-0.0201416
0.0747681
0.211182
0.290222
0.298157
0.174866
0.0106812
-0.0772095
-0.127869
-0.202026
-0.228577
-0.190125
-0.11261
-0.0204468
0.0961304
0.118408
0.0750732
0.0164795
-0.0350952
-0.0646973
-0.0827026
-0.0802612
-0.0881958
-0.0665283
-0.0234985
-0.00640869
-0.0497437
-0.0787354
-0.072937
-0.045166
0.0244141
0.210266
0.297241
0.258789
0.125427
0.0552368
0.102844
0.187683
0.225525
0.184631
0.154114
0.153198
0.149536
0.0643921
-0.0320435
-0.0387573
-0.0473022
-0.0680542
-0.0512695
-0.00793457
0.0588989
0.0698853
0.0778198
0.0863647
0.0793457
0.0296021
-0.0259399
-0.0643921
-0.144348
-0.141907
-0.0558472
0.0305176
0.0753784
0.0518799
0.0500488
0.0695801
0.0106812
-0.121765
-0.246582
-0.278931
-0.190735
-0.171204
-0.180359
-0.11322
-0.0253296
-0.0161743
-0.0909424
-0.147095
-0.226135
-0.335083
-0.285034
-0.102844
0.00701904
0.027771
0.020752
0.0088501
0.0112915
0.00213623
-0.0289917
-0.0595093
-0.0546265
-0.038147
-0.00762939
0.0390625
0.112305
0.213318
0.228271
0.248108
0.227661
0.133972
0.0393677
-0.015564
0.0335693
0.0915527
0.0759888
0.0939941
0.0662231
0.0805664
0.140381
0.178528
0.160522
0.0564575
-0.0473022
-0.0976562
-0.039978
0.0708008
0.178833
0.209351
0.140686
-0.071106
-0.154419
-0.123596
-0.0909424
-0.104675
-0.123596
-0.11322
-0.0991821
-0.0820923
-0.0906372
-0.0515747
0.0128174
0.100098
0.198364
0.263977
0.238037
0.12146
-0.000610352
-0.0640869
-0.108032
-0.119019
-0.0894165
-0.065918
-0.0640869
-0.0497437
-0.022583
0.057373
0.228271
0.429077
0.40863
0.339355
0.242615
0.0793457
-0.135803
-0.302429
-0.327759
-0.287781
-0.23468
-0.168152
-0.093689
-0.0460815
-0.0479126
-0.157776
-0.263977
-0.282898
-0.201721
-0.0592041
0.0558472
0.078125
0.0387573
-0.0131226
-0.0915527
-0.0857544
0.0302124
0.206909
0.274048
0.167236
0.0750732
0.0601196
0.0671387
0.0744629
0.0213623
0.0656128
0.227356
0.330811
0.310364
0.205688
0.0744629
0.0149536
-0.020752
-0.0845337
-0.108948
-0.093689
-0.0497437
-0.0308228
-0.0665283
-0.115662
-0.124817
-0.137329
-0.151978
-0.0967407
-0.0991821
-0.0531006
0.0234985
0.125427
0.130005
-0.0119019
-0.135498
-0.194397
-0.223694
-0.215149
-0.13916
-0.0378418
0.0210571
0.032959
0.0112915
0.0119019
0.0338745
0.0302124
0.00152588
0.0411987
0.0549316
0.0454712
0.142517
0.294495
0.367126
0.382996
0.437012
0.324707
0.0326538
-0.213013
-0.310974
-0.273132
-0.218506
-0.14801
-0.117188
-0.107117
-0.0299072
0.0720215
0.0778198
0.0823975
0.0662231
-0.0186157
-0.0775146
-0.0012207
0.111694
0.151672
0.181274
0.126953
0.0808716
0.0869751
0.136414
0.136108
0.0643921
-0.0646973
-0.179443
-0.195923
-0.193787
-0.212708
-0.257263
-0.259705
-0.271606
-0.233459
-0.200806
-0.101929
0.0518799
0.141296
0.180359
0.179138
0.117493
-0.00396729
0.00640869
0.039978
0.0411987
-0.0119019
-0.0906372
-0.162048
-0.173645
-0.127258
-0.0549316
0.0604248
0.19165
0.21759
0.103149
-0.0338745
-0.103455
-0.0985718
-0.0793457
-0.114136
-0.163269
-0.212402
-0.259705
-0.272522
-0.159607
-0.0109863
0.110168
0.227356
0.30426
0.388489
0.401306
0.358887
0.269775
0.132751
-0.043335
-0.143127
-0.170898
-0.1651
-0.156555
-0.118408
-0.0259399
0.0424194
0.0552368
0.0494385
0.0497437
0.102844
0.149536
0.243835
0.346069
0.415955
0.458679
0.429993
0.273743
-0.00396729
-0.248108
-0.385437
-0.375061
-0.307312
-0.270386
-0.164185
-0.0338745
0.0338745
0.0088501
-0.0537109
-0.0930786
-0.108948
-0.146179
-0.167236
-0.131226
-0.115662
-0.0543213
0.117493
0.350342
0.561218
0.700073
0.745544
0.578308
0.191345
-0.0595093
-0.196228
-0.309143
-0.359802
-0.30426
-0.195312
-0.0918579
-0.078125
-0.109558
-0.138855
-0.113525
0.00335693
0.178833
0.235596
0.187378
0.111084
-0.0250244
-0.147705
-0.17395
-0.0952148
0.0231934
0.101013
0.169983
0.206909
0.141296
0.0415039
0.00457764
-0.0222778
-0.0338745
0.0180054
0.0567627
0.0848389
0.108643
0.0604248
-0.0256348
-0.150146
-0.351257
-0.389099
-0.267639
-0.101318
0.0378418
0.0546265
0.0186157
0.039978
0.088501
0.126038
0.115967
-0.017395
-0.173645
-0.19165
-0.135803
-0.0405884
0.0814819
0.173035
0.177612
0.151978
0.0793457
0.0686646
0.116882
0.190125
0.194092
0.117493
0.00335693
-0.0479126
-0.0088501
0.128784
0.238342
0.328979
0.302429
0.195007
0.0466919
-0.0558472
-0.0616455
-0.00213623
0.043335
0.137634
0.187378
0.192566
0.214539
0.0601196
-0.248413
-0.395813
-0.415649
-0.401306
-0.358887
-0.266113
-0.0939941
0.00640869
-0.00427246
0.00518799
0.0250244
0.0134277
0.00701904
0.0143433
0.027771
0.0253296
0.0448608
0.0457764
-0.0161743
-0.0741577
-0.0839233
-0.0363159
0.0872803
0.297546
0.456543
0.475464
0.314026
0.107117
-0.0622559
-0.198059
-0.195923
-0.130005
-0.0518799
-0.0390625
-0.0497437
-0.0427246
-0.0195312
-0.0119019
0.00366211
0.0088501
0.00396729
-0.0280762
-0.0631714
-0.0216675
0.0927734
0.195618
0.251465
0.22583
0.0820923
-0.0656128
-0.131836
-0.0808716
0.027771
0.140686
0.220642
0.229492
0.222473
0.272827
0.253601
0.104675
-0.050354
-0.154114
-0.195007
-0.225525
-0.136108
-0.010376
0.127869
0.25177
0.312195
0.272827
0.215149
0.12146
-0.0839233
-0.335999
-0.455322
-0.412903
-0.39917
-0.386047
-0.332642
-0.249634
-0.133362
-0.0567627
-0.0280762
-0.0448608
-0.0500488
-0.0369263
-0.0283813
-0.00244141
0.0128174
0.027771
0.0332642
-0.00823975
-0.128479
-0.207825
-0.204468
-0.160828
-0.0613403
0.107117
0.202637
0.140686
0.157166
0.221558
0.244446
0.266113
0.21698
0.160828
0.0454712
-0.116882
-0.248718
-0.262451
-0.209045
-0.134583
0.0106812
0.133972
0.183411
0.134888
0.0582886
0.00671387
-0.113831
-0.20874
-0.185852
0.0384521
0.281372
0.493469
0.612488
0.553894
0.369568
0.124207
-0.0305176
-0.0939941
-0.110474
-0.115356
-0.150757
-0.198975
-0.209045
-0.166016
-0.137939
-0.130005
-0.0982666
-0.0662231
-0.0595093
-0.078125
-0.0689697
-0.0942993
-0.0753784
-0.0564575
-0.00244141
0.0402832
0.0915527
0.125732
0.0866699
-0.020752
-0.0875854
-0.0827026
-0.0878906
-0.0698853
-0.0796509
-0.0958252
-0.0585938
-0.0402832
-0.0811768
-0.194397
-0.266418
-0.238647
-0.17334
-0.032959
0.102234
0.179749
0.17334
0.126953
0.0598145
-0.00732422
-0.0177002
0.0473022
0.143738
0.270691
0.384827
0.397034
0.349121
0.285339
0.14801
0.0479126
-0.0515747
-0.161438
-0.246887
-0.202942
-0.00518799
0.182495
0.270691
0.168152
-0.0396729
-0.242615
-0.407715
-0.43457
-0.193787
0.00732422
0.203857
0.341797
0.352173
0.305176
0.256653
0.244446
0.16449
0.0320435
-0.0567627
-0.195312
-0.278625
-0.152283
-0.0454712
-0.0430298
-0.0369263
-0.0283813
-0.0131226
0.03479
0.00823975
-0.0866699
-0.190735
-0.231323
-0.21759
-0.19989
-0.180359
-0.140686
-0.137024
-0.125427
-0.0634766
0.0537109
0.2005
0.252991
0.212708
0.147095
0.108948
0.108948
0.124817
0.1828
0.238647
0.301208
0.328979
0.280151
0.130615
-0.0979614
-0.203552
-0.204163
-0.181274
-0.0338745
0.175171
0.249939
0.235291
0.204773
0.123901
-0.0546265
-0.195923
-0.201721
-0.116882
-0.0338745
0.00671387
0.043335
-0.0302124
-0.151978
-0.212402
-0.219116
-0.205383
-0.171814
-0.129089
-0.117188
-0.0668335
-0.00915527
0.0314331
0.0616455
0.0604248
0.0302124
0.0485229
0.0582886
0.0366211
0.0485229
0.0814819
0.0863647
0.0292969
-0.0238037
-0.0588989
-0.0274658
-0.00976562
0.00396729
-0.0244141
-0.0598145
0.0164795
0.148621
0.266113
0.370789
0.544128
0.521545
0.312805
0.148926
-0.0186157
-0.191956
-0.319214
-0.306396
-0.228882
-0.0827026
-0.0344849
-0.0457764
-0.0772095
-0.115967
-0.0973511
-0.0888062
-0.0918579
-0.0653076
-0.0411987
-0.100708
-0.195923
-0.284119
-0.307312
-0.20874
-0.0158691
0.0906372
0.124207
0.113831
0.0836182
0.0161743
-0.027771
-0.098877
-0.149536
-0.0820923
0.0131226
0.0372314
0.0701904
0.118103
0.141602
0.154114
0.149841
0.126953
0.100403
0.062561
0.027771
-0.00671387
-0.00274658
0.0131226
0.012207
0.0299072
0.0500488
0.0204468
0.00732422
0.0512695
0.0540161
-0.020752
-0.122681
-0.1828
-0.137634
0.00366211
0.118408
0.255432
0.299988
0.191956
0.0518799
-0.0283813
0.00946045
0.155029
0.292664
0.33905
0.228577
0.0842285
-0.0305176
-0.116577
-0.175476
-0.22644
-0.247803
-0.181885
0.00366211
0.119934
0.138245
0.0918579
0.0619507
0.027771
-0.0198364
0.071106
0.138245
0.122375
0.0280762
-0.176086
-0.239868
-0.180054
-0.124817
-0.130615
-0.144653
-0.124512
-0.109253
-0.102234
-0.123596
-0.0912476
-0.0375366
0.0119019
0.0125122
-0.0253296
-0.0488281
-0.0665283
-0.0631714
-0.0698853
-0.0924683
-0.0546265
0.0366211
0.137329
0.170898
0.197144
0.161743
0.055542
-0.00701904
-0.0686646
-0.071106
-0.00793457
0.0653076
0.0854492
0.0509644
0.0180054
-0.0296021
-0.0784302
-0.0952148
-0.0863647
-0.0366211
0.00518799
0.0228882
0.0430298
0.050354
0.0534058
0.0152588
-0.0012207
-0.0167847
-0.0320435
0.00732422
0.107117
0.325623
0.558472
0.661926
0.662231
0.466614
0.134888
-0.160217
-0.237122
-0.210876
-0.143433
-0.123596
-0.180664
-0.0982666
-0.017395
0.0915527
0.201416
0.131531
0.0387573
-0.0241089
-0.102234
-0.240784
-0.32196
-0.313416
-0.246887
-0.184631
-0.134888
-0.115662
-0.0756836
-0.0366211
-0.0582886
-0.0726318
-0.0759888
-0.0994873
-0.164185
-0.17334
-0.168152
-0.134583
-0.100708
-0.090332
-0.0628662
-0.0177002
0.0262451
0.00762939
0.0375366
0.0192261
0.0241089
0.0109863
0.00213623
0.0012207
0.00274658
0.0213623
0.0695801
0.101318
0.0973511
0.0946045
0.0799561
0.0622559
0.0543213
0.0164795
-0.00457764
-0.0119019
-0.0183105
-0.0201416
-0.0140381
-0.00396729
0.0131226
0.0134277
0.0125122
0.0442505
0.0997925
0.177917
0.239563
0.311279
0.333862
0.271301
0.13031
-0.00793457
-0.111084
-0.129395
0.00762939
0.185852
0.299988
0.209045
-0.0906372
-0.259094
-0.19928
-0.15564
-0.209656
-0.185852
-0.1297
-0.141602
-0.0979614
0.00823975
0.0741577
0.0570679
0.0457764
0.0204468
0.0265503
0.0680542
0.057373
0.00732422
-0.0317383
-0.10376
-0.193787
-0.198059
-0.102844
-0.0497437
0.00152588
0.0177002
0.0253296
0.0842285
0.0686646
-0.0567627
-0.10376
-0.0720215
-0.0280762
0.000915527
0.0845337
0.232544
0.327454
0.423584
0.462341
0.360107
0.144958
-0.0961304
-0.226135
-0.209656
-0.192261
-0.186768
-0.155334
-0.0756836
0.0302124
0.119019
0.168152
0.135803
-0.0231934
-0.209656
-0.319519
-0.25116
-0.187988
-0.128479
-0.0695801
-0.0204468
-0.0375366
-0.0753784
-0.129395
-0.119019
-0.0970459
-0.110779
-0.115051
-0.0820923
-0.0527954
-0.0405884
-0.0189209
-0.022583
-0.0588989
-0.0860596
-0.06073
-0.0378418
-0.00793457
0.0942993
0.204773
0.265198
0.261841
0.237732
0.215149
0.188599
0.162659
0.168152
0.143433
0.045166
-0.0302124
-0.0567627
-0.0778198
-0.093689
-0.135803
-0.19928
-0.195618
-0.153198
-0.133667
-0.0717163
-0.0479126
-0.0686646
-0.045166
0.027771
0.144958
0.236511
0.294189
0.361023
0.435181
0.390625
0.346069
0.221558
0.0302124
-0.1828
-0.297546
-0.305481
-0.271912
-0.245056
-0.186768
-0.151367
-0.143127
-0.10376
-0.0552368
0.015564
0.0967407
0.0924683
-0.0198364
-0.0836182
-0.118408
-0.142517
-0.154114
-0.0646973
0.0100708
0.0448608
0.0268555
-0.0164795
-0.0265503
0.000915527
0.0509644
0.0741577
0.0714111
0.0128174
-0.0436401
-0.11322
-0.124817
-0.115967
-0.100403
-0.0494385
-0.020752
-0.0631714
-0.112305
-0.113831
-0.0827026
-0.0674438
-0.0479126
0.0128174
0.0402832
0.0476074
0.0744629
0.118408
0.171509
0.159302
0.110168
0.0512695
0.0192261
0.00762939
-0.00854492
-0.0271606
-0.0247192
0.0305176
0.0570679
0.0598145
0.0704956
0.0671387
0.0265503
0.06073
0.172424
0.267944
0.309753
0.305481
0.281982
0.246582
0.166931
0.0930786
0.194397
0.354614
0.408325
0.340576
0.126038
-0.238342
-0.466309
-0.409851
-0.223694
-0.119934
-0.0762939
-0.00305176
-0.00274658
-0.045166
-0.0967407
-0.125427
-0.0845337
0.050354
0.144653
0.191345
0.148315
0.0421143
-0.130615
-0.224609
-0.236511
-0.178833
-0.0857544
0
0.0692749
0.098877
0.0439453
-0.0848389
-0.177917
-0.148621
-0.0927734
-0.0149536
0.105286
0.191345
0.198975
0.135193
0.0692749
-0.00762939
-0.122375
-0.216675
-0.242004
-0.216064
-0.0930786
0.0881958
0.185242
0.194092
0.126038
0.0619507
0.0582886
0.0509644
0.144653
0.23468
0.222168
0.196838
0.130005
-0.0491333
-0.238342
-0.313416
-0.260315
-0.154419
-0.0149536
0.119934
0.211792
0.176392
0.0634766
-0.00274658
-0.067749
-0.0473022
-0.0131226
-0.00274658
-0.039978
-0.0946045
-0.206909
-0.275269
-0.252686
-0.214233
-0.146179
-0.0686646
0.017395
0.0427246
0.0115967
0.0320435
0.0134277
-0.012207
0.0747681
0.182495
0.146179
0.125427
0.132446
0.118103
0.123596
0.0814819
0.055542
0.00152588
-0.0686646
-0.103149
-0.102539
-0.102539
-0.134583
-0.1828
-0.198975
-0.139771
-0.0421143
0.0454712
0.0860596
0.127258
0.13855
0.0970459
0.0750732
0.116577
0.214233
0.213623
0.16571
0.157166
0.145569
0.10498
0.071106
0.192261
0.253601
0.260315
0.227051
0.0997925
-0.0778198
-0.0802612
-0.0665283
-0.0115967
0.0463867
0.0149536
-0.0610352
-0.0222778
0.109253
0.176086
0.150757
0.0497437
-0.185852
-0.439758
-0.578613
-0.614929
-0.566711
-0.377197
-0.0888062
0.0570679
0.0494385
0.0131226
-0.0308228
-0.0811768
-0.062561
0.00732422
0.0274658
0
-0.0219727
-0.022583
-0.0201416
0.0195312
0.0485229
0.0488281
0.0534058
0.0457764
0.0881958
0.20874
0.33844
0.46051
0.579834
0.487976
0.246887
0.0393677
-0.0357056
-0.098877
-0.171509
-0.136108
-0.00732422
0.209656
0.366211
0.415649
0.358276
0.293579
0.212708
0.223389
0.287476
0.0888062
-0.200806
-0.357971
-0.460205
-0.510864
-0.536499
-0.479431
-0.366211
-0.129395
0.155945
0.336609
0.349731
0.276794
0.176086
0.0524902
-0.0479126
-0.0860596
-0.0964355
-0.161133
-0.278931
-0.236511
-0.160217
0.00640869
0.208435
0.288391
0.293884
0.224304
0.130005
0.106812
0.145874
0.163269
0.2005
0.273743
0.126648
-0.149231
-0.330811
-0.418396
-0.400391
-0.308838
-0.232239
-0.188293
-0.217285
-0.236816
-0.171509
-0.101318
-0.0973511
-0.133972
-0.132446
-0.122375
-0.0747681
-0.0476074
-0.0396729
0.0216675
0.0735474
0.0521851
0.0204468
0.00274658
0.0125122
0.0198364
0.0143433
0.0314331
0.0518799
0.055542
0.0817871
0.115967
0.103455
0.113831
0.108032
0.0927734
0.123901
0.189514
0.283203
0.300293
0.242004
0.09552
-0.0637817
-0.15564
-0.174255
-0.184021
-0.166321
-0.0817871
-0.0479126
-0.0808716
-0.0946045
0.00854492
0.0619507
0.0265503
0.0387573
0.0439453
0.0540161
0.113525
0.146179
0.147095
0.149231
0.0869751
-0.03479
-0.0994873
-0.0592041
0.0189209
0.128174
0.196533
0.151672
0.0805664
0.0466919
0.0875854
-0.0296021
-0.197144
-0.193176
-0.115662
-0.0823975
-0.0408936
0.00640869
0.0558472
0.151672
0.221863
0.210876
0.0527954
-0.108948
-0.105591
-0.00671387
0.0778198
0.0799561
0.06073
0.0167847
-0.0634766
-0.127258
-0.177307
-0.195007
-0.188904
-0.159302
-0.0827026
0.00762939
0.0125122
-0.0274658
-0.0811768
-0.0695801
-0.0262451
-0.00762939
0.0088501
0.0704956
0.137634
0.163269
0.133972
0.0546265
-0.085144
-0.204163
-0.195923
-0.126038
-0.0283813
0.055542
0.123901
0.194397
0.169373
0.118713
0.0515747
0.0088501
0.03479
-0.00488281
-0.0634766
-0.0500488
-0.0387573
-0.0210571
-0.0793457
-0.151672
-0.174561
-0.187073
-0.162659
0.020752
0.224304
0.312195
0.264893
0.138245
-0.0515747
-0.15686
-0.157471
-0.144958
-0.0384521
0.0769043
0.149841
0.20874
0.292664
0.354004
0.338135
0.127869
-0.0158691
-0.109558
-0.235901
-0.301514
-0.368958
-0.467834
-0.440979
-0.203857
0.0396729
0.249939
0.292664
0.214233
0.0872803
-0.0131226
-0.0646973
-0.105591
-0.0839233
-0.050354
-0.00610352
0.0195312
0.0497437
0.104675
0.107117
0.0924683
0.0564575
-0.00549316
-0.152283
-0.158691
-0.0512695
0.0567627
0.175781
0.192261
0.0875854
-0.107727
-0.218811
-0.300293
-0.320129
-0.271606
-0.151367
-0.0643921
0
0.0317383
0.0384521
0.027771
0.0198364
0.0170898
0.00244141
-0.0100708
-0.0265503
-0.0170898
-0.0112915
-0.0341797
-0.0646973
-0.0613403
-0.0469971
0.000915527
0.0228882
0.0732422
0.141907
0.240784
0.309448
0.305481
0.29541
0.241699
0.121765
-0.00946045
-0.11322
-0.183716
-0.228271
-0.203552
-0.179443
-0.202942
-0.185242
-0.121765
-0.0198364
0.187988
0.345154
0.380249
0.327148
0.177917
-0.0183105
-0.062561
-0.0161743
-0.0241089
-0.0149536
0.0509644
0.135193
0.118408
0.114136
0.0796509
-0.0335693
-0.0836182
-0.0845337
-0.11322
-0.173645
-0.209961
-0.161133
-0.119019
-0.11261
-0.0820923
-0.00457764
0.116272
0.0927734
-0.0143433
-0.0567627
-0.083313
-0.180969
-0.143738
0.00579834
0.0540161
0.038147
0.0177002
0.0253296
0.0637817
0.13092
0.174866
0.215454
0.211182
0.184326
0.0866699
-0.00946045
0.0143433
0.0106812
0.00915527
-0.00732422
-0.0827026
-0.117798
-0.140076
-0.153503
-0.140686
-0.0900269
-0.0820923
-0.0961304
-0.101318
-0.0765991
-0.0109863
0.0360107
0.0759888
0.115662
0.122681
0.0857544
-0.00701904
-0.0735474
-0.127869
-0.17334
-0.133057
-0.055542
0.0112915
0.0561523
0.0527954
0.0524902
0.0552368
0.0631714
0.0613403
0.0509644
0.0180054
0
0.00335693
-0.00793457
-0.0369263
-0.0164795
0.00946045
0.0234985
0.0436401
0.0769043
0.13092
0.271912
0.4245
0.465088
0.374146
0.296936
0.212402
0.0378418
0.0134277
0.0732422
0.0323486
-0.0946045
-0.206909
-0.227356
-0.171509
-0.132751
-0.101624
-0.0152588
0.0704956
0.104675
0.103455
0.0820923
0.00152588
-0.180664
-0.296631
-0.319519
-0.308228
-0.28595
-0.193787
0.0265503
0.113525
0.0869751
0.108643
0.184631
0.1651
0.0582886
-0.0860596
-0.126038
-0.121765
-0.0897217
-0.0296021
0.0286865
0.0369263
0.0125122
-0.0390625
-0.00274658
0.0527954
0.0592041
0.0744629
0.0518799
0.0393677
0.0665283
0.132141
0.202026
0.215759
0.208435
0.225525
0.148315
0.00854492
-0.129395
-0.135193
-0.152283
-0.22644
-0.302124
-0.321655
-0.206299
-0.098877
-0.0546265
-0.00427246
0.0527954
0.124817
0.154114
0.116577
0.0256348
-0.0299072
-0.0958252
-0.0796509
0.0363159
0.137634
0.259705
0.298767
0.262146
0.108337
0.00213623
0.0357056
0.0811768
0.0997925
0.123901
0.129395
0.136108
0.147705
0.141907
0.0778198
0.010376
0.00183105
0.00518799
-0.0344849
-0.0723267
-0.0991821
-0.13855
-0.192871
-0.222473
-0.233154
-0.0595093
0.0704956
0.0802612
0.0375366
0.00183105
-0.0137329
0.071106
0.205078
0.323792
0.309448
0.19928
0.101013
-0.0460815
-0.2005
-0.292664
-0.263977
-0.215149
-0.157166
-0.164795
-0.204163
-0.188293
-0.171814
-0.153809
-0.123901
-0.0549316
0.0164795
0.0808716
0.122986
0.1651
0.188599
0.150452
0.0558472
-0.0387573
-0.0866699
-0.0897217
-0.0753784
-0.00183105
0.0115967
-0.0012207
0.0415039
0.0857544
0.120544
0.144043
0.151062
0.103455
0.0485229
0.039978
0.032959
0.0311279
0.027771
0.0280762
0.0289917
0.0241089
0.039978
0.0317383
0.0180054
-0.0668335
-0.159302
-0.169678
-0.124817
-0.0311279
0.00610352
0.0439453
0.127258
0.196228
0.223694
0.258789
0.350342
0.33783
0.289612
0.338745
0.315247
0.0460815
-0.14679
-0.223083
-0.200806
-0.146484
-0.045166
0.0543213
0.0561523
0.0311279
0.0112915
-0.0427246
-0.104675
-0.122375
-0.107117
-0.0512695
0.0439453
0.155334
0.231018
0.271912
0.222473
0.050354
-0.088501
-0.156555
-0.176697
-0.06073
0.00732422
-0.0439453
-0.0466919
-0.0241089
-0.0250244
-0.0619507
-0.0695801
-0.0634766
-0.062561
-0.0894165
-0.167542
-0.24353
-0.239563
-0.165405
-0.104675
-0.0564575
-0.0527954
-0.0289917
-0.0296021
-0.0466919
-0.0656128
-0.0656128
-0.0491333
-0.0402832
-0.027771
-0.0595093
-0.0857544
-0.0747681
-0.0360107
0.0445557
0.149536
0.231018
0.242004
0.201111
0.0949097
-0.039978
-0.09552
-0.09552
-0.0390625
0.0540161
0.15564
0.217285
0.198364
0.135498
0.0164795
-0.106506
-0.162048
-0.202026
-0.164185
-0.114441
-0.050354
0
-0.00549316
0.00427246
-0.0305176
-0.124512
-0.163574
-0.111694
0.0595093
0.244446
0.361633
0.367126
0.32074
0.27832
0.197754
0.0595093
-0.129089
-0.205383
-0.157166
-0.0723267
0.0393677
0.185242
0.357361
0.449829
0.365601
0.138855
-0.0979614
-0.350342
-0.494385
-0.42572
-0.348511
-0.346985
-0.293274
-0.220947
-0.163269
-0.0830078
0.0253296
0.0650024
0.0100708
-0.0457764
-0.0668335
-0.055542
-0.0466919
-0.0320435
-0.0244141
-0.0119019
0.000305176
-0.0131226
-0.0521851
-0.0592041
-0.0466919
-0.0424194
-0.050354
-0.0549316
-0.0491333
-0.0326538
-0.0128174
-0.0161743
-0.00946045
0.0164795
0.0485229
0.0845337
0.119324
0.167236
0.128479
0.133972
0.125427
0.0857544
0.0524902
0.0540161
0.0643921
0.0164795
-0.0759888
-0.125122
-0.133972
-0.101624
-0.0637817
-0.022583
0.027771
0.0579834
0.0692749
0.0686646
0.0750732
0.0778198
0.0741577
0.03479
0.0436401
0.0582886
0.0704956
0.0674438
0.0732422
0.160522
0.2948
0.284424
0.188599
0.139465
0.204163
0.26886
0.292358
0.314026
0.3479
0.201416
-0.144348
-0.311584
-0.392456
-0.430603
-0.436707
-0.397644
-0.341187
-0.236511
-0.14801
-0.0820923
-0.0784302
-0.0759888
-0.0698853
-0.0772095
-0.106812
-0.161438
-0.212708
-0.230713
-0.20874
-0.183411
-0.118713
-0.0726318
-0.0537109
-0.0296021
0.0228882
0.0363159
0.0512695
0.0994873
0.107117
0.103455
0.102234
0.126648
0.107117
0.0668335
0.0680542
0.0857544
0.123291
0.174255
0.237732
0.269775
0.247803
0.198669
0.0640869
-0.0802612
-0.14679
-0.156555
-0.113525
-0.0650024
-0.0558472
-0.0656128
-0.065918
-0.133362
-0.177612
-0.0637817
0.03479
0.0363159
0.0973511
0.206604
0.215454
0.11261
0.0387573
-0.0299072
-0.103149
-0.116272
-0.109558
-0.0967407
-0.0888062
-0.0723267
-0.0405884
-0.0238037
-0.0308228
-0.0460815
-0.0894165
-0.123291
-0.121155
-0.0808716
-0.0558472
-0.0262451
0.0112915
0.0378418
0.00579834
0.00213623
0.0311279
0.0167847
0.0360107
0.0457764
0.0259399
0.0259399
0.0408936
0.0961304
0.141907
0.181274
0.171204
0.159607
0.10437
-0.0100708
-0.0930786
-0.0994873
-0.0790405
-0.0457764
-0.0485229
-0.116882
-0.16449
-0.170898
-0.126038
-0.0421143
-0.0177002
-0.0170898
-0.0732422
-0.144653
-0.196533
-0.188599
-0.158081
-0.0888062
0.0973511
0.245056
0.357056
0.409546
0.431824
0.339661
0.325012
0.282593
0.261841
0.302429
0.275269
0.144958
0.115967
0.124207
0.149231
0.229187
0.224304
0.00732422
-0.22522
-0.383911
-0.430908
-0.379333
-0.306702
-0.185852
-0.0668335
0.00946045
0.0698853
-0.0210571
-0.181885
-0.241394
-0.19104
-0.119324
-0.168152
-0.198975
-0.243835
-0.249329
-0.19989
-0.0939941
-0.0311279
-0.0140381
0.0720215
0.155945
0.254211
0.319824
0.297852
0.158386
-0.0119019
-0.101013
-0.131836
-0.0640869
0.00640869
0.0613403
0.116577
0.0192261
-0.0656128
-0.112915
-0.0878906
-0.0753784
-0.0772095
-0.0622559
-0.0335693
-0.0167847
0.0390625
0.0830078
0.0985718
0.0845337
0.0692749
0.062561
0.0192261
-0.00457764
-0.0262451
-0.0238037
0.0265503
0.121155
0.173035
0.237732
0.203247
0.104065
0.0115967
-0.0494385
0.0088501
0.174255
0.334167
0.355225
0.292358
0.155029
0.0350952
-0.0204468
-0.0549316
-0.0906372
-0.117798
-0.110168
-0.163879
-0.271606
-0.320435
-0.333252
-0.220032
-0.104065
0.0213623
0.122986
0.2005
0.240784
0.252991
0.189209
0.0234985
-0.109863
-0.176697
-0.176392
-0.110168
-0.0616455
-0.0314331
-0.0088501
0.00915527
0.00152588
-0.0299072
-0.104065
-0.137634
-0.184326
-0.228271
-0.213623
-0.126343
0.045166
0.301208
0.463257
0.387268
0.214539
0.0283813
-0.159302
-0.170593
-0.0619507
0.0622559
0.13092
0.141907
0.12085
0.101013
0.0759888
0.085144
0.098877
0.0888062
-0.00305176
-0.173035
-0.210571
-0.161743
-0.134583
-0.0302124
0.0161743
0.0430298
0.103455
0.138245
0.146484
0.103455
0.03479
-0.020752
-0.0723267
-0.100708
-0.10376
-0.0741577
-0.0317383
-0.0106812
-0.00213623
0.0146484
-0.00305176
-0.0524902
-0.141296
-0.166321
-0.157471
-0.152588
-0.106201
-0.0314331
-0.00823975
-0.0241089
-0.0595093
-0.0820923
-0.118408
-0.120239
-0.0631714
-0.0296021
-0.0106812
0.0140381
0.0509644
0.0466919
0.0476074
0.140991
0.266113
0.360718
0.440369
0.554199
0.539246
0.397339
0.283203
0.275879
0.258179
0.221558
0.188293
0.144043
-0.0421143
-0.256042
-0.36438
-0.317688
-0.213013
-0.108948
0.00396729
0.0720215
0.0527954
-0.0234985
-0.105591
-0.170593
-0.310059
-0.470581
-0.533142
-0.534058
-0.504761
-0.439758
-0.436707
-0.310669
-0.106506
0.00488281
0.0540161
0.0701904
0.0540161
0.0164795
0.0350952
0.0643921
0.0411987
-0.0137329
-0.067749
-0.03479
-0.050354
-0.06073
-0.0448608
0
0.0543213
0.0750732
0.0765991
0.0827026
0.0534058
0.0146484
0.0012207
0.0112915
0.0186157
0.0320435
0.0695801
0.106812
0.144348
0.17334
0.256042
0.362854
0.412598
0.36377
0.278015
0.197754
0.0637817
-0.0460815
-0.0927734
-0.113831
-0.11322
-0.12085
-0.131531
-0.158997
-0.194092
-0.156555
-0.100403
-0.0756836
-0.0473022
-0.0164795
-0.0183105
0.00518799
0.0247192
0.0656128
0.168152
0.293884
0.372314
0.407104
0.481873
0.505676
0.393677
0.219116
0.152283
0.0790405
-0.0817871
-0.210571
-0.235901
-0.205383
-0.123901
-0.0128174
0.0189209
-0.0360107
-0.0115967
0.0567627
0.0762939
0.0668335
0.0811768
0.039978
-0.147705
-0.287781
-0.266418
-0.214844
-0.148315
-0.114746
-0.0921631
-0.127258
-0.166931
-0.166321
-0.184021
-0.205383
-0.274963
-0.328674
-0.266724
-0.131531
0.0256348
0.317078
0.511169
0.330811
0.0875854
-0.00701904
0.0546265
0.202942
0.35675
0.319214
0.141907
-0.0518799
-0.153198
-0.194397
-0.24231
-0.210876
-0.155334
-0.139771
-0.118408
-0.0927734
-0.0271606
0.0848389
0.187683
0.211792
0.2005
0.112305
-0.0292969
-0.085144
-0.0784302
-0.0567627
-0.0558472
-0.0723267
-0.0808716
-0.0811768
-0.0741577
-0.0802612
-0.0756836
-0.0723267
-0.0854492
-0.10498
-0.0720215
-0.0320435
0.0210571
0.134277
0.263977
0.245667
0.162659
0.112
0.0274658
-0.0479126
-0.0546265
-0.0466919
-0.0592041
-0.0567627
-0.0808716
-0.131531
-0.155945
-0.151062
-0.145874
-0.12085
-0.0241089
0.0805664
0.0857544
0.0750732
0.0973511
0.16449
0.231934
0.326538
0.438843
0.505371
0.475464
0.247498
0.0357056
-0.0891113
-0.137024
-0.0830078
0.0256348
0.143433
0.206604
0.212402
0.1828
0.183105
0.179443
0.0354004
-0.137939
-0.287781
-0.32959
-0.279541
-0.214233
-0.170288
-0.122986
-0.102844
-0.110168
-0.115662
-0.141602
-0.168457
-0.19165
-0.209351
-0.172729
-0.119934
-0.012207
0.0759888
0.0558472
-0.0564575
-0.136414
-0.149841
-0.149536
-0.138855
-0.0927734
-0.06073
-0.0997925
-0.0875854
-0.0305176
0.0244141
0.0924683
0.142517
0.149231
0.117188
0.0460815
-0.0137329
-0.0469971
-0.0247192
-0.0350952
-0.0375366
-0.00274658
0.0296021
0.0613403
0.119934
0.139465
0.132141
0.0888062
0.0411987
-0.0387573
-0.127869
-0.155334
-0.119629
-0.0512695
0.00335693
0.0198364
0.0360107
0.0473022
0.0741577
0.0308228
-0.0106812
-0.00244141
0.0637817
0.0820923
0.131836
0.23468
0.321655
0.427856
0.49469
0.4245
0.241089
-0.00427246
-0.151367
-0.134583
-0.045166
0.00793457
0.027771
-0.0204468
-0.0744629
-0.0430298
0.043335
0.00396729
-0.0759888
-0.115356
-0.104065
-0.124512
-0.160828
-0.162354
-0.111389
-0.0515747
0.0265503
0.0830078
0.101624
0.0314331
-0.0772095
-0.250244
-0.34668
-0.191345
0.118408
0.32135
0.451965
0.455322
0.335999
0.0863647
-0.0845337
-0.072937
-0.0680542
-0.0796509
-0.0543213
-0.00488281
0.0292969
0.0354004
0.0314331
0.0134277
-0.022583
-0.0469971
-0.12085
-0.10376
-0.065918
-0.0674438
-0.0402832
-0.0140381
0.0283813
0.0445557
0.0271606
0.0265503
0.0283813
-0.00213623
-0.0250244
-0.0369263
-0.0643921
-0.0735474
-0.0262451
-0.00213623
0.0311279
-0.00854492
-0.00915527
0.0799561
0.265198
0.428772
0.485535
0.492554
0.425415
0.218811
0
-0.125732
-0.127258
-0.0256348
0.00488281
-0.0708008
-0.219727
-0.307617
-0.302734
-0.28595
-0.219116
-0.168152
-0.102234
-0.0527954
-0.0280762
-0.0219727
-0.0320435
-0.017395
0.0958252
0.20752
0.228271
0.242615
0.19928
-0.0112915
-0.154724
-0.243835
-0.284729
-0.245667
-0.167236
-0.112915
-0.0622559
0.0158691
0.101624
0.101929
0.0735474
0.0546265
0.000915527
-0.0100708
0.0100708
0.0500488
0.101318
0.155945
0.195618
0.2005
0.178223
0.12146
0.0402832
-0.0088501
-0.0164795
0.0210571
0.101013
0.1651
0.176392
0.205688
0.284729
0.318298
0.294495
0.264893
0.258179
0.240784
0.128784
-0.0491333
-0.116882
-0.113831
-0.085144
-0.0531006
0.000305176
-0.0247192
-0.0888062
-0.125732
-0.138245
-0.158386
-0.213623
-0.237122
-0.180664
-0.107117
-0.0192261
0.085144
0.148621
0.1651
0.175476
0.118103
-0.0161743
-0.134583
-0.153503
-0.0918579
-0.039978
-0.0457764
-0.108948
-0.181885
-0.231934
-0.239563
-0.263062
-0.187073
-0.0149536
0.0796509
0.122375
0.112305
0.0570679
0.0119019
-0.0192261
-0.0296021
-0.0192261
-0.0540161
-0.103149
-0.101013
-0.0686646
0.0537109
0.191345
0.262451
0.238647
0.170593
0.106506
0.045166
-0.0460815
-0.119324
-0.117798
-0.062561
-0.0222778
-0.0143433
0.00915527
-0.0106812
0.00366211
0.0961304
0.267334
0.409546
0.457153
0.430603
0.379639
0.309753
0.172119
0.17334
0.140686
0.00610352
-0.133972
-0.202026
-0.196533
-0.208435
-0.223694
-0.18158
-0.151062
-0.00488281
0.104675
0.136414
0.196533
0.210571
0.108948
-0.0167847
-0.0442505
-0.102844
-0.187683
-0.213013
-0.211792
-0.141296
-0.158691
-0.229797
-0.264893
-0.197144
-0.135803
-0.0643921
0.0140381
0.0494385
0.090332
0.0540161
0.00213623
0.027771
0.100708
0.188599
0.224304
0.154724
-0.0131226
-0.198364
-0.30304
-0.291748
-0.213623
-0.113525
-0.0177002
0.0753784
0.134277
0.0665283
-0.00366211
-0.0436401
-0.0674438
-0.0698853
-0.0686646
-0.0524902
-0.085144
-0.13092
-0.161438
-0.171814
-0.152893
-0.0769043
0.0247192
0.0906372
0.162964
0.26001
0.335693
0.358887
0.307312
0.125427
-0.171204
-0.274658
-0.196228
-0.0473022
0.140381
0.272522
0.339966
0.344543
0.284424
0.109558
-0.0430298
-0.125427
-0.203247
-0.290527
-0.257263
-0.106201
0.218506
0.515442
0.613098
0.453796
0.375366
0.195618
-0.065918
-0.200195
-0.275879
-0.368958
-0.460815
-0.404358
-0.290222
-0.246887
-0.168152
-0.0558472
0.0213623
0.038147
0.0228882
-0.125122
-0.181885
-0.167542
-0.147095
-0.195618
-0.255432
-0.19165
-0.100403
-0.0482178
-0.0332642
-0.0161743
0.00488281
-0.00579834
0
0.0296021
0.0582886
0.0692749
0.0741577
0.0796509
0.0753784
0.0680542
0.0314331
0.00579834
0.00579834
0.0158691
0.0192261
0.0344849
0.0500488
0.0622559
0.0524902
0.0344849
-0.017395
-0.0186157
-0.00244141
-0.00305176
0.0100708
0.038147
0.0469971
0.0332642
0.00457764
0.00152588
-0.00488281
0.00823975
0.0650024
0.117493
0.158386
0.230713
0.360413
0.404358
0.375366
0.325928
0.282898
0.188904
0.0158691
-0.0683594
-0.020752
0.0732422
0.13855
0.195618
0.213928
0.25177
0.216675
-0.0305176
-0.274353
-0.349121
-0.333862
-0.224915
-0.170898
-0.212708
-0.248718
-0.162964
-0.0460815
-0.0250244
-0.0186157
-0.0271606
-0.0646973
-0.0753784
-0.0320435
0.0915527
0.153198
0.0753784
-0.0588989
-0.0616455
-0.0250244
-0.0692749
-0.0881958
-0.0720215
-0.0878906
-0.155029
-0.185852
-0.0927734
0.00701904
0.119934
0.194092
0.189514
0.071106
-0.128784
-0.300598
-0.36499
-0.340271
-0.340881
-0.26825
-0.0448608
0.200806
0.283508
0.206909
0.117798
0.0521851
0.0405884
0.0613403
0.0476074
0.0128174
-0.0430298
-0.126038
-0.170898
-0.0860596
0.0567627
0.132446
0.142822
0.0802612
-0.0643921
-0.0894165
-0.0543213
-0.0534058
-0.0610352
-0.071106
-0.121765
-0.144348
-0.0289917
0.116577
0.284119
0.42572
0.523071
0.506592
0.304871
0.127258
0.0338745
-0.126038
-0.180664
-0.158081
-0.093689
-0.0234985
0.00793457
0.0439453
-0.045166
-0.106201
-0.140381
-0.162964
-0.122986
-0.146179
-0.171204
-0.161438
-0.122986
-0.0997925
-0.0415039
-0.00152588
-0.0152588
0.00549316
0.0436401
0.0241089
0.0369263
0.0796509
0.144653
0.213318
0.270691
0.16449
-0.0585938
-0.25116
-0.348816
-0.180359
-0.0958252
0.0088501
0.118103
0.153503
0.0827026
-0.0888062
-0.17395
-0.166321
-0.116272
-0.0656128
-0.0146484
-0.017395
0.0183105
0.0216675
-0.0796509
-0.170288
-0.181885
-0.169373
-0.134888
-0.0259399
0.06073
0.0830078
0.0567627
0.0479126
0.0531006
0.0631714
0.0894165
0.112305
0.134583
0.0949097
0.0741577
0.0753784
0.0558472
0.0680542
0.0845337
0.0747681
0.0198364
-0.000915527
-0.0131226
-0.0125122
0.0012207
0.0509644
0.126648
0.108948
0.0674438
0.0564575
0.0808716
0.115051
0.0994873
0.0979614
0.114441
0.174255
0.154724
0.0756836
0.0723267
0.146179
0.0958252
0.0250244
0.00610352
-0.0860596
-0.139771
-0.0622559
0.0839233
0.168762
0.140381
0.0106812
-0.0665283
-0.157776
-0.238647
-0.222168
-0.162964
-0.103455
-0.0256348
-0.0335693
-0.0506592
-0.0814819
-0.0775146
-0.0302124
-0.0234985
-0.0411987
-0.0518799
-0.0714111
-0.168762
-0.247192
-0.246887
-0.127258
0.0167847
0.150146
0.219116
0.169373
0.0952148
0.0769043
0.0485229
0.00518799
0.0109863
0.0222778
0.0131226
-0.00274658
0.0344849
0.107117
0.228577
0.361023
0.422668
0.359802
0.186462
-0.0271606
-0.039978
-0.0100708
-0.0387573
-0.0741577
-0.0473022
-0.101013
-0.116272
-0.0747681
-0.0326538
-0.0296021
-0.121765
-0.249023
-0.259399
-0.119629
-0.0241089
-0.00152588
0.00793457
0.00671387
0.0164795
0.0622559
0.152893
0.178528
0.163574
0.0778198
-0.101624
-0.202942
-0.131226
-0.085144
-0.0686646
-0.0366211
0.0366211
0.015564
0.012207
0
-0.0448608
-0.10498
-0.14679
-0.184937
-0.151062
-0.0466919
0.00213623
0.0405884
0.0714111
0.0778198
0.0827026
0.115967
0.133667
0.188599
0.204468
0.170898
0.115662
0.0946045
0.06073
0.0543213
0.0723267
0.0769043
0.0289917
0.0231934
0.00396729
-0.045166
-0.0930786
-0.188293
-0.263367
-0.249634
-0.179443
-0.0686646
-0.0790405
-0.11322
-0.0863647
-0.0668335
-0.0158691
0.0576782
0.143433
0.188904
0.142822
0.00396729
-0.0939941
-0.133972
-0.17395
-0.205383
-0.0720215
0.0588989
0.140381
0.143738
0.13031
0.122375
0.0479126
-0.0735474
-0.104065
-0.0338745
0.0524902
0.0350952
-0.00854492
-0.0146484
-0.0378418
-0.0860596
-0.113525
-0.0796509
-0.0247192
0.00854492
0.0863647
0.154724
0.162659
0.204773
0.255737
0.269775
0.251465
0.170593
-0.0140381
-0.201416
-0.274048
-0.215149
-0.0576782
0.0549316
0.133667
0.118713
0.0680542
-0.00579834
-0.0888062
-0.172424
-0.195007
-0.13092
0.0363159
0.291443
0.47821
0.527344
0.465698
0.301819
0.0927734
-0.0680542
-0.142822
-0.121765
-0.072937
-0.133057
-0.23468
-0.247803
-0.264893
-0.233765
-0.204163
-0.177002
-0.214233
-0.247803
-0.260925
-0.220337
-0.126953
-0.00183105
0.0735474
0.0680542
0.0415039
0.020752
0.0292969
0.020752
0.0262451
0.0695801
0.0778198
0.0271606
-0.0494385
-0.0869751
-0.0762939
-0.0378418
-0.015564
-0.0137329
0.00366211
0.0628662
0.0924683
0.0708008
0.067749
0.0717163
0.0720215
0.0588989
0.0515747
0.0308228
-0.0186157
-0.0543213
-0.0747681
-0.112915
-0.1828
-0.152283
-0.062561
0.027771
0.163879
0.313416
0.448914
0.540466
0.578003
0.589905
0.517273
0.271301
0.117188
0.121765
0.223694
0.275879
0.220947
0.13031
0.104065
0.0686646
-0.00488281
-0.0866699
-0.168762
-0.238953
-0.291138
-0.360413
-0.499573
-0.533447
-0.465393
-0.338135
-0.266113
-0.250549
-0.124817
0.00793457
0.0387573
0.0311279
0.00427246
-0.0430298
-0.0549316
-0.0418091
-0.0280762
-0.0115967
-0.00671387
0.00213623
0.0228882
0.0292969
0.0164795
-0.00610352
-0.0656128
-0.124817
-0.0753784
-0.0402832
-0.00732422
0.0167847
0.0540161
0.0744629
0.0881958
0.111389
0.0967407
0.0640869
0.0241089
0.020752
0.0549316
0.144348
0.213623
0.245972
0.202332
0.136414
-0.0137329
-0.134888
-0.0180054
0.123291
0.267029
0.363464
0.38269
0.289001
0.0949097
-0.0875854
-0.198059
-0.180054
-0.0216675
0.150452
0.275879
0.319214
0.252686
0.0665283
-0.166321
-0.283508
-0.305481
-0.229187
-0.139465
-0.10437
-0.0640869
-0.0540161
-0.0436401
-0.00854492
0.0473022
0.0973511
0.0521851
-0.0704956
-0.185852
-0.161743
-0.108032
-0.104065
-0.126038
-0.0979614
-0.0238037
-0.00396729
0
0.0283813
0.0717163
0.0604248
0.00457764
-0.0497437
-0.050354
0.0631714
0.237732
0.306702
0.26825
0.218811
0.0915527
-0.020752
-0.104065
-0.146179
-0.155334
-0.125427
-0.0778198
-0.0384521
-0.0143433
-0.0292969
-0.0564575
-0.0894165
-0.078125
-0.0698853
-0.0177002
0.0405884
0.0769043
0.0778198
0.0680542
0.0567627
0.0479126
0.09552
0.161133
0.192261
0.139465
-0.0088501
-0.0845337
-0.152283
-0.1651
-0.192871
-0.238647
-0.236816
-0.211182
-0.172424
-0.0595093
0.0534058
0.102539
0.144043
0.23468
0.301208
0.304871
0.273743
0.277405
0.293274
0.233459
0.0256348
-0.17334
-0.165405
-0.0253296
0.0408936
0.0274658
-0.0152588
-0.0305176
-0.072937
-0.135193
-0.113525
-0.0421143
0.0494385
0.13916
0.171814
0.0970459
-0.0601196
-0.149841
-0.140686
-0.106506
-0.109558
-0.0827026
-0.0860596
-0.0778198
-0.0888062
-0.0857544
-0.0622559
-0.0439453
-0.0686646
-0.157776
-0.163574
-0.136414
-0.0970459
0.0238037
0.223999
0.316772
0.29541
0.194397
0.0378418
-0.157166
-0.263977
-0.284729
-0.26001
-0.238342
-0.163879
-0.0390625
0.124207
0.249023
0.260925
0.221252
0.110168
-0.0411987
-0.167236
-0.26825
-0.283508
-0.210571
-0.111389
-0.0305176
0.0509644
0.0653076
0.0195312
-0.0146484
-0.00518799
0.0012207
0.0271606
0.0311279
-0.0231934
-0.0137329
0.0234985
0.112
0.231628
0.35675
0.461731
0.439148
0.22644
-0.0234985
-0.140686
-0.0698853
-0.0119019
0.00671387
0.127563
0.303955
0.425415
0.454712
0.395508
0.300598
-0.00946045
-0.411377
-0.52948
-0.453796
-0.356445
-0.216675
-0.0933838
-0.0619507
-0.0784302
-0.088501
-0.0796509
-0.0656128
-0.0552368
-0.0436401
-0.083313
-0.15686
-0.188599
-0.187073
-0.162964
-0.10498
-0.0482178
-0.0253296
-0.0439453
-0.0332642
0.0158691
0.0515747
0.0402832
0.00640869
-0.00244141
0.00213623
0.0115967
0.027771
0.0341797
0.0421143
0.0259399
-0.0137329
0.0131226
-0.0100708
-0.0854492
-0.0668335
0.0137329
0.0698853
0.0820923
0.120544
0.136414
0.115356
0.128479
0.202026
0.352783
0.601501
0.794373
0.770569
0.597534
0.318909
-0.00946045
-0.174866
-0.176086
-0.157166
-0.149536
-0.106506
-0.2005
-0.246277
-0.227661
-0.204163
-0.151672
-0.0595093
0.0311279
0.03479
-0.0360107
-0.121765
-0.167847
-0.188904
-0.209961
-0.181274
-0.1297
-0.107727
-0.0442505
-0.0210571
-0.010376
-0.00152588
0
0.0320435
0.0231934
-0.00213623
-0.0354004
-0.0445557
-0.0161743
0.0289917
0.0567627
0.0570679
0.00579834
-0.0442505
-0.067749
-0.0588989
-0.03479
0.0088501
0.0357056
0.045166
0.0598145
0.0558472
0.0863647
0.108643
0.135498
0.125122
0.0460815
-0.0857544
-0.157776
-0.129395
-0.0720215
-0.0588989
-0.085144
-0.0708008
0.0119019
0.114441
0.192261
0.214233
0.213623
0.195007
0.17395
0.141296
0.120239
0.149231
0.217896
0.168762
0.00183105
-0.116272
-0.12146
-0.101624
-0.117798
-0.146179
-0.158081
-0.125732
-0.100098
-0.0469971
-0.0415039
-0.0360107
0.000305176
0.0845337
0.0350952
-0.0384521
-0.0460815
-0.039978
-0.137024
-0.183105
-0.0842285
-0.0296021
-0.0375366
-0.0881958
-0.0946045
-0.0402832
-0.0131226
-0.0158691
0.0537109
0.0900269
0.0692749
0.0576782
0.0741577
0.0418091
-0.0344849
-0.0595093
-0.0817871
-0.170288
-0.235901
-0.236511
-0.153503
-0.0839233
-0.0152588
-0.00640869
0.0485229
0.065918
0.0305176
-0.00854492
-0.0387573
-0.0372314
-0.0125122
-0.0308228
-0.03479
0.0115967
0.104675
0.145264
0.153198
0.115967
0.0457764
-0.0308228
-0.0442505
-0.0283813
0.017395
0.0628662
0.0646973
0.0753784
0.166626
0.260925
0.329895
0.406494
0.457458
0.457153
0.320435
0.13031
0.0231934
-0.12207
-0.287476
-0.350647
-0.254517
-0.166321
-0.168762
-0.178223
-0.178833
-0.149841
-0.0756836
-0.0576782
-0.09552
-0.137024
-0.146179
-0.116882
-0.0698853
0.000305176
0.101624
0.177917
0.186768
0.118103
-0.00274658
-0.121155
-0.24292
-0.296021
-0.22583
-0.0561523
0.108337
0.199585
0.196838
0.0802612
-0.0588989
-0.105896
-0.115051
-0.0753784
-0.0210571
0.0778198
0.0875854
-0.0186157
-0.13092
-0.166016
-0.13855
-0.0854492
-0.0183105
-0.00701904
-0.0112915
-0.0247192
0.0012207
0.0436401
0.118103
0.163269
0.137329
0.0680542
-0.0650024
-0.119934
-0.115662
-0.117798
-0.128174
-0.103455
-0.0900269
-0.117493
-0.148621
-0.135803
-0.0802612
-0.00640869
0.0460815
0.09552
0.121765
0.0933838
0.0790405
0.0970459
0.0427246
-0.0189209
-0.0646973
-0.0265503
0.111389
0.238953
0.390625
0.456848
0.405273
0.197144
-0.00396729
-0.142517
-0.205383
-0.151367
-0.119019
-0.130615
-0.0631714
0.0485229
0.0994873
0.045166
0.107422
0.0863647
0.00549316
-0.093689
-0.220947
-0.242615
-0.188599
-0.0918579
0.0234985
0.107117
0.162354
0.169373
0.140991
0.0985718
0.0585938
0.0756836
0.0692749
0.105591
0.100098
0.12146
0.211792
0.104065
-0.136414
-0.336304
-0.428467
-0.4422
-0.374146
-0.262146
-0.149231
-0.0341797
0.0390625
0.0500488
0.0637817
0.11261
0.13092
0.0357056
-0.0439453
-0.0482178
-0.0405884
-0.0454712
-0.0564575
-0.0390625
-0.00549316
0.00427246
0.0088501
0.0323486
0.0747681
0.10437
0.0772095
0.00457764
-0.065918
-0.0610352
-0.0485229
-0.0942993
-0.117493
-0.141907
-0.143127
-0.0790405
0.0375366
0.169983
0.279541
0.305481
0.236206
0.134583
0.0735474
0.0695801
0.0634766
0.106201
0.205383
0.265808
0.169373
0.0549316
0.0527954
0.146179
0.197144
0.180359
0.0997925
-0.00976562
-0.0540161
-0.0378418
-0.0296021
-0.012207
-0.0234985
-0.0796509
-0.0820923
-0.0320435
-0.0137329
0.00610352
0.0411987
0.152283
0.287781
0.340271
0.253601
0.0799561
-0.117493
-0.293274
-0.370178
-0.289307
-0.140381
-0.0152588
0.0308228
0.0259399
-0.0283813
-0.0811768
-0.0985718
-0.0750732
-0.182495
-0.270386
-0.246277
-0.171814
-0.104065
-0.0497437
0.00518799
-0.00823975
-0.0482178
-0.0213623
-0.00213623
-0.00427246
-0.0112915
-0.0149536
-0.0210571
0.0234985
0.0717163
0.0848389
0.0527954
-0.0198364
-0.0714111
-0.0970459
-0.120239
-0.109558
-0.0790405
-0.0323486
0.0778198
0.162659
0.136414
0.0808716
0.0491333
-0.0125122
-0.0268555
0.0357056
0.0848389
0.177612
0.237732
0.210876
0.0186157
-0.130005
-0.151672
-0.141602
-0.105286
-0.0747681
-0.0479126
-0.0485229
-0.0744629
-0.0933838
-0.0506592
-0.0286865
0.0131226
0.0442505
0.0604248
0.166626
0.276489
0.347595
0.395813
0.380249
0.274048
0.12085
0.105591
0.146179
0.143127
0.0863647
0.0369263
-0.0152588
-0.108337
-0.22583
-0.28717
-0.293274
-0.239563
-0.145569
-0.0250244
0.0537109
0.131836
0.213013
0.249329
0.209961
0.133057
0.0253296
-0.102539
-0.13855
-0.149231
-0.177917
-0.108643
0.0668335
0.155029
0.155029
0.101318
0.0479126
-0.0881958
-0.160828
-0.0942993
0.00946045
0.105896
0.245972
0.240784
-0.0201416
-0.250854
-0.35553
-0.340576
-0.245361
-0.130615
-0.0268555
-0.0204468
-0.0521851
-0.0457764
-0.0360107
-0.0442505
-0.0378418
-0.0299072
0.0411987
0.062561
0.0497437
0.0567627
0.0723267
0.050354
0.0680542
0.093689
0.112915
0.0994873
0.0671387
0.00793457
-0.032959
-0.0692749
-0.104675
-0.117188
-0.0836182
-0.0863647
-0.163269
-0.184631
-0.130005
-0.0595093
-0.00152588
0.0115967
-0.0164795
0.0164795
0.0933838
0.176697
0.226746
0.177917
0.0512695
-0.032959
-0.0601196
-0.0674438
-0.0750732
-0.0643921
-0.0637817
-0.0610352
-0.0466919
-0.0128174
0
-0.0112915
-0.0262451
-0.0482178
-0.0820923
-0.0808716
-0.0320435
0.00518799
0.072937
0.176086
0.169373
0.144348
0.144958
0.153503
0.129395
0.0894165
0.149231
0.230408
0.306702
0.32196
0.238342
0.172424
-0.0088501
-0.242615
-0.470276
-0.491333
-0.310669
-0.102539
0.108948
0.168152
0.143738
0.0802612
-0.0512695
-0.1474
-0.217896
-0.274353
-0.263672
-0.202332
-0.171204
-0.110474
-0.072937
0.00427246
0.0765991
0.136414
0.121155
0.0115967
-0.0628662
-0.115967
-0.170593
-0.134888
-0.112
-0.128784
-0.131531
-0.0790405
-0.0186157
0.0888062
0.179138
0.346069
0.463562
0.52124
0.467529
0.275269
0.107727
0.000915527
-0.020752
-0.0460815
-0.0900269
-0.0939941
-0.120239
-0.134583
-0.166321
-0.146179
-0.0790405
0.00366211
0.0814819
0.162354
0.161133
0.0653076
-0.0271606
-0.0576782
-0.0296021
-0.00427246
-0.00854492
0.00335693
-0.0134277
-0.0473022
-0.0415039
-0.015564
-0.0149536
-0.00640869
0.00274658
0.0125122
0.0213623
0.00854492
0.0012207
0.00579834
0.00671387
0.0177002
0.0354004
0.144958
0.254822
0.296021
0.297546
0.158691
-0.0430298
-0.152893
-0.14679
-0.0723267
-0.027771
0.00579834
0.0537109
0.0506592
-0.0137329
0.0271606
0.0744629
0.0350952
-0.0198364
-0.00488281
-0.0427246
-0.137634
-0.228577
-0.25177
-0.198975
-0.0234985
0.123901
0.169678
0.26825
0.332336
0.285034
0.15564
0.0909424
0.0479126
-0.0146484
-0.0262451
-0.0665283
-0.117493
-0.115662
-0.085144
-0.038147
-0.0424194
-0.123901
-0.211182
-0.210876
-0.193481
-0.152283
-0.0283813
0.131226
0.224304
0.209045
0.0619507
-0.0952148
-0.169067
-0.19989
-0.195007
-0.181885
-0.141602
-0.0650024
0.0430298
0.194397
0.25116
0.272217
0.258484
0.190735
0.0418091
-0.104065
-0.140381
-0.130615
-0.103149
-0.0686646
-0.0265503
-0.0161743
-0.00427246
-0.00793457
-0.0448608
-0.0588989
-0.00549316
0.0933838
0.171204
0.281067
0.323181
0.264282
0.143433
0.0311279
-0.0723267
-0.108643
-0.0979614
-0.062561
-0.045166
-0.0491333
-0.0408936
-0.0112915
0.0650024
0.100708
0.196533
0.305481
0.333557
0.305176
0.164185
0.043335
-0.0466919
-0.102539
-0.133667
-0.161133
-0.174255
-0.174255
-0.170288
-0.14801
-0.116882
-0.0997925
-0.0939941
-0.0772095
-0.0570679
-0.020752
-0.00823975
-0.00305176
0.0354004
0.0283813
0.017395
0.0112915
0.0231934
0.0164795
0.00152588
-0.00152588
0.0250244
0.0930786
0.198975
0.314636
0.395813
0.439758
0.409851
0.28656
0.139771
-0.0717163
-0.250244
-0.373535
-0.432739
-0.420227
-0.370789
-0.30304
-0.235291
-0.159302
-0.172119
-0.187073
-0.12207
-0.0991821
0.0302124
0.120544
0.137634
0.138245
0.108032
0.0875854
0.0976562
0.0897217
0.0967407
0.0964355
0.0915527
0.114441
0.0930786
0.0338745
0.0119019
0.0558472
0.00244141
-0.117493
-0.159302
-0.164185
-0.149841
-0.150757
-0.108948
-0.0598145
-0.0524902
-0.0588989
-0.057373
-0.0271606
-0.0198364
0.00274658
-0.00274658
-0.0299072
-0.0363159
-0.0308228
-0.0296021
-0.0317383
-0.0244141
-0.00793457
0.0189209
0.0158691
0.0241089
0.0119019
0.00335693
0.00640869
-0.00213623
-0.00854492
0
0.102234
0.208435
0.360718
0.449524
0.441284
0.328369
0.129089
0.0265503
-0.121765
-0.137939
-0.0662231
0.0253296
0.0802612
0.107117
0.0897217
0.0210571
0.0238037
-0.00579834
-0.0692749
-0.0616455
0.0143433
0.00274658
-0.0827026
-0.116577
-0.0997925
-0.0811768
-0.0546265
-0.0213623
0.00335693
0.0143433
-0.0158691
-0.0613403
-0.108948
-0.138245
-0.0958252
-0.0772095
-0.0527954
-0.0204468
0.0357056
0.0344849
0.0137329
0.0909424
0.155029
0.174255
0.180664
0.195312
0.170898
0.102234
0.0918579
0.0970459
0.0405884
-0.0393677
-0.0546265
-0.0915527
-0.115356
-0.078125
-0.0125122
0.0350952
0.102844
0.179138
0.174255
0.171509
0.14801
0.0881958
-0.00244141
-0.104065
-0.13855
-0.119629
-0.0924683
-0.13855
-0.230713
-0.341492
-0.399475
-0.3125
-0.175171
-0.0927734
0.012207
0.152283
0.312195
0.347595
0.253601
0.104065
-0.00213623
-0.067749
-0.115662
-0.0997925
-0.0552368
-0.0332642
0.00762939
0.0466919
0.0445557
0.0222778
0.0537109
0.122681
0.169678
0.196533
0.186768
0.155945
0.0927734
0.0439453
0.0253296
0.0320435
0.0778198
0.1297
0.155945
0.0982666
0.0164795
-0.118408
-0.196533
-0.241394
-0.257874
-0.218811
-0.14801
-0.090332
-0.0994873
-0.10437
-0.108032
-0.0674438
-0.0411987
0.0537109
0.140991
0.160828
0.0747681
0.00762939
-0.0219727
-0.0247192
0.0012207
0.0894165
0.198669
0.325623
0.417786
0.478821
0.417786
0.303955
0.136719
-0.0665283
-0.189514
-0.1828
-0.262756
-0.292358
-0.285034
-0.229492
-0.215149
-0.224915
-0.212402
-0.229492
-0.202332
-0.00366211
0.140991
0.163269
0.104065
0.0415039
0.0344849
0.0527954
-0.0204468
-0.0778198
-0.0259399
0.0302124
0.121155
0.266113
0.372009
0.359192
0.198669
-0.00244141
-0.112915
-0.233765
-0.237122
-0.0967407
0.0592041
0.137939
0.162354
0.0860596
-0.0109863
-0.160217
-0.297852
-0.291443
-0.184631
-0.0708008
0.0265503
0.0509644
0.0439453
0.0265503
0.0180054
0.0167847
0.0186157
0.020752
0.00518799
-0.00762939
-0.00213623
-0.00640869
-0.0140381
-0.0265503
-0.0323486
-0.0323486
-0.0357056
-0.0274658
-0.00305176
0.0201416
0.0131226
0.00823975
0.00518799
0.0183105
0.0656128
0.131836
0.203857
0.278015
0.349121
0.361328
0.317993
0.208435
0.107727
0.00518799
-0.0570679
-0.0878906
-0.113831
-0.132141
-0.140076
-0.127258
-0.134888
-0.176392
-0.206604
-0.1651
-0.0445557
0.0961304
0.241089
0.391846
0.427551
0.330505
0.143127
0.00366211
-0.0476074
-0.0747681
-0.111694
-0.158691
-0.15686
-0.159302
-0.218811
-0.286865
-0.279541
-0.220947
-0.14679
-0.0213623
0.125732
0.160522
0.0863647
-0.0167847
-0.0958252
-0.107727
-0.110474
-0.10498
-0.0723267
-0.0369263
-0.0186157
0.0012207
0.0115967
-0.00854492
-0.032959
0.0088501
0.0460815
-0.0167847
-0.0152588
0.0570679
0.0653076
0.0134277
-0.00854492
0.0125122
0.0296021
0.0579834
0.0994873
0.10376
0.124207
0.146484
0.127869
0.151978
0.142517
0.158081
0.260925
0.432739
0.601196
0.657349
0.502625
0.117188
-0.300903
-0.50354
-0.449524
-0.389099
-0.338135
-0.270081
-0.225525
-0.19165
-0.177612
-0.145569
-0.0881958
-0.0350952
0.0302124
0.0888062
0.0997925
0.0509644
-0.0744629
-0.140991
-0.12146
-0.0738525
-0.0262451
-0.020752
-0.0289917
-0.0323486
-0.0592041
-0.0418091
-0.0564575
-0.0616455
-0.0561523
-0.0372314
-0.0265503
-0.0247192
-0.0317383
-0.0479126
-0.0479126
-0.0170898
0.00274658
-0.0393677
-0.0704956
-0.032959
0.027771
0.109863
0.124512
0.15564
0.186462
0.150452
0.0653076
0.0283813
0.0497437
0.101013
0.0521851
-0.071106
-0.0979614
-0.0552368
0.00762939
0.0228882
-0.0305176
-0.0466919
0.0228882
0.0830078
0.13855
0.2005
0.204163
0.107727
0.0326538
0.0512695
0.0808716
0.0610352
0.00946045
0.0619507
0.0628662
-0.000305176
-0.071106
-0.0762939
-0.0772095
-0.0253296
-0.00183105
-0.0308228
-0.0537109
-0.0317383
-0.0244141
-0.0976562
-0.186462
-0.181885
-0.0796509
0.0546265
0.135498
0.141602
0.0411987
-0.032959
-0.0674438
-0.0463867
0.0198364
0.0595093
0.0628662
0.0613403
0.0411987
-0.045166
-0.0250244
0.000610352
-0.00671387
-0.00396729
0.00610352
0.0192261
0.045166
0.0778198
0.117493
0.13855
0.107117
0.0891113
0.0430298
-0.0784302
-0.151367
-0.101624
-0.0424194
0.0231934
0.0518799
0.0674438
0.0845337
0.0900269
0.0531006
0.0198364
0.0234985
0.0271606
0.0515747
0.125427
0.151062
0.0906372
0.027771
-0.0592041
-0.200195
-0.259399
-0.144348
-0.067749
0.0119019
0.0900269
0.083313
-0.00152588
-0.157166
-0.268555
-0.301819
-0.246887
-0.124512
0.0405884
0.137939
0.101318
0.0421143
0.0390625
0.0244141
0.0326538
0.0204468
-0.0283813
-0.0408936
-0.0112915
0.0180054
0.0717163
0.108337
0.0909424
0.0259399
-0.0354004
-0.0634766
-0.0909424
-0.0784302
-0.0424194
0.00274658
0.0448608
0.108337
0.0888062
0.0387573
0.0350952
0.0369263
0.0558472
0.0704956
0.0485229
0.055542
0.0686646
0.0601196
0.0634766
0.0656128
0.0546265
0.0537109
0.0650024
0.0604248
0.065918
0.0509644
0.015564
-0.0967407
-0.164185
-0.156555
-0.112305
-0.116272
-0.1297
-0.11261
-0.139465
-0.133057
-0.0869751
-0.00305176
0.0875854
0.188599
0.292664
0.328369
0.310059
0.279846
0.195007
0.114136
0.0473022
0.0170898
0.00823975
0.000915527
-0.0650024
-0.204468
-0.348206
-0.366821
-0.350037
-0.261841
-0.137329
-0.0610352
-0.0494385
-0.0527954
-0.050354
-0.0100708
0.071106
0.220032
0.249329
0.180054
0.146179
0.101013
0.0186157
-0.0805664
-0.101013
-0.0427246
-0.0543213
-0.0198364
0.0427246
0.0875854
0.0601196
0.00183105
-0.0357056
-0.0643921
-0.0640869
-0.0549316
-0.0375366
-0.0305176
0.0167847
0.0485229
0.0369263
0.00762939
-0.00579834
-0.0134277
-0.0317383
-0.00305176
0.105286
0.190125
0.204773
0.209961
0.172729
0.131836
-0.00366211
-0.125427
-0.169983
-0.201111
-0.226746
-0.212708
-0.170593
-0.109558
-0.0228882
0.032959
0.065918
0.0973511
0.12085
0.179443
0.324707
0.471497
0.499573
0.44281
0.276184
0.00946045
-0.146484
-0.224304
-0.263062
-0.258789
-0.246582
-0.226746
-0.198059
-0.180969
-0.148926
-0.118713
-0.0930786
-0.0357056
0.0265503
0.0439453
0.067749
0.0817871
0.0939941
0.0811768
0.012207
-0.0418091
-0.132446
-0.209656
-0.194397
-0.125122
-0.102234
-0.0384521
0.0384521
0.0961304
0.0772095
0.0701904
0.0897217
0.0967407
0.0561523
-0.0326538
-0.120544
-0.0961304
-0.0509644
0.0512695
0.205994
0.394897
0.480652
0.365295
0.179443
0.0421143
-0.0247192
-0.00274658
0.0100708
0.0158691
0.0262451
0.0357056
0.0152588
-0.0256348
-0.134888
-0.143433
-0.027771
0.0686646
0.0708008
-0.00488281
-0.0857544
-0.15686
-0.196228
-0.252991
-0.335083
-0.293274
-0.228577
-0.195923
-0.115356
-0.0637817
-0.0924683
0.0119019
0.09552
0.102844
0.121155
0.125427
0.0827026
0.0119019
-0.0296021
-0.0488281
-0.0915527
-0.128174
-0.136108
-0.140686
-0.135193
-0.127258
-0.0463867
0.027771
0.0552368
0.0518799
0.0708008
0.116882
0.0875854
0.0250244
-0.0213623
-0.0338745
-0.0268555
0.067749
0.195923
0.13916
0.0799561
0.12085
0.209656
0.240173
0.238953
0.291443
0.289001
0.230103
0.194397
0.137329
0.131531
0.162964
0.17334
0.185242
0.0949097
-0.0875854
-0.0683594
0.050354
0.157471
0.256653
0.317078
0.214233
0.0491333
-0.141296
-0.372314
-0.444641
-0.344543
-0.220642
-0.149536
-0.167542
-0.220642
-0.223083
-0.22644
-0.209961
-0.194092
-0.101929
-0.0317383
-0.0274658
-0.0616455
-0.0411987
-0.00213623
0.015564
0.0241089
0.0192261
0.000305176
-0.0128174
-0.0430298
-0.0595093
-0.0588989
-0.0537109
-0.0387573
-0.00335693
0.0363159
0.0479126
0.0317383
0.00610352
-0.00579834
-0.0332642
-0.0405884
-0.032959
-0.0253296
0.0134277
0.0900269
0.112305
0.0997925
0.0640869
0.0549316
0.0439453
0.0192261
-0.00946045
-0.0296021
-0.0332642
-0.0128174
-0.0100708
0.0143433
0.0262451
0.038147
0.0436401
0.0216675
0.0119019
0.00610352
-0.00396729
0.0384521
0.137939
0.207214
0.245667
0.372009
0.554504
0.594177
0.531921
0.384827
0.105286
-0.117798
-0.226746
-0.240479
-0.135193
-0.0198364
0.0946045
0.225525
0.292358
0.15564
-0.0186157
-0.144958
-0.282898
-0.438538
-0.440674
-0.333862
-0.223389
-0.109863
-0.0952148
-0.0909424
-0.169983
-0.268555
-0.276489
-0.223694
-0.125427
-0.0198364
0.0308228
0.0674438
0.0650024
0.0540161
0.0695801
0.0750732
0.0509644
0.0128174
-0.0244141
-0.0363159
-0.00610352
0.0540161
0.107422
0.111389
0.0534058
0.0546265
0.09552
0.0921631
0.0750732
0.0680542
0.0509644
0.027771
0.0112915
0.0158691
0.0247192
0.0271606
0.00823975
0.0131226
0.0180054
0.0296021
0.00823975
0.00549316
0.0363159
0.0753784
0.123901
0.180969
0.213013
0.152588
0.0177002
-0.0357056
-0.038147
-0.00762939
0.0476074
0.0439453
0.0439453
0.062561
0.122986
0.240784
0.345459
0.385437
0.357971
0.288696
0.185852
0.0164795
-0.106201
-0.172424
-0.166931
-0.157166
-0.114136
-0.0366211
0.00701904
-0.0704956
-0.206299
-0.143738
0.0650024
0.223083
0.324097
0.288696
0.135498
-0.111084
-0.26825
-0.19928
-0.0869751
0.000305176
0.00701904
0
-0.00793457
-0.0698853
-0.125427
-0.144348
-0.0802612
0.0375366
0.144043
0.148315
0.0808716
0.00335693
-0.0958252
-0.172424
-0.122375
-0.0708008
-0.0338745
-0.0534058
-0.093689
-0.0964355
-0.0598145
-0.0494385
-0.0756836
-0.0613403
-0.0546265
-0.0930786
-0.0741577
-0.0119019
0.0253296
0.0473022
0.0744629
0.0949097
0.0997925
0.136108
0.140381
0.147705
0.151367
0.147705
0.137024
0.160217
0.22583
0.248108
0.166626
0.0680542
-0.0241089
-0.0686646
-0.127258
-0.131836
-0.110168
-0.0753784
-0.0582886
-0.0268555
0.0515747
0.25116
0.309448
0.336914
0.234985
0.144348
0.0958252
0.00152588
-0.15564
-0.211487
-0.127258
-0.0296021
-0.0357056
-0.0430298
-0.0439453
-0.0213623
0.0238037
0.00274658
0.00640869
0.0268555
0.00488281
-0.00640869
0.00335693
-0.0430298
-0.101624
-0.151062
-0.173645
-0.121765
0.027771
0.112305
0.0915527
0.0164795
-0.0259399
-0.093689
-0.198975
-0.250244
-0.190735
-0.120239
-0.101624
-0.0820923
-0.0878906
-0.0778198
-0.050354
0.0228882
0.0881958
0.116882
0.133972
0.123596
0.085144
0.0112915
-0.0482178
-0.0808716
-0.0881958
-0.0418091
0.03479
0.0720215
0.114441
0.0796509
0.0421143
0.00152588
-0.0637817
-0.130005
-0.113831
-0.043335
0.0253296
0.118713
0.174561
0.229492
0.19928
0.00335693
-0.115356
-0.140686
-0.0723267
-0.0601196
-0.0802612
-0.0540161
0.0357056
0.144653
0.250854
0.392456
0.472107
0.431824
0.218201
0.043335
-0.0524902
-0.192261
-0.299988
-0.299377
-0.226746
-0.187073
-0.108337
-0.0601196
-0.0497437
-0.00762939
0.0817871
0.217285
0.253601
0.19165
0.0524902
-0.0674438
-0.106812
-0.184631
-0.200806
-0.168457
-0.144958
-0.162964
-0.115967
-0.0784302
-0.067749
-0.0656128
-0.0604248
-0.027771
-0.00488281
0.0332642
0.0640869
0.101929
0.145569
0.143738
0.0570679
-0.0689697
-0.137939
-0.139771
-0.119934
-0.0656128
-0.0369263
-0.0216675
-0.0338745
-0.00823975
0.00610352
0.0247192
0.0216675
0.0100708
0.00152588
-0.00671387
-0.0131226
-0.0216675
-0.0479126
-0.0393677
-0.00579834
0.050354
0.0973511
0.107727
0.0906372
0.0442505
0.000305176
-0.0604248
-0.124817
-0.118408
-0.0402832
0.0616455
0.141907
0.0811768
-0.0512695
-0.122375
-0.0991821
-0.0326538
0.043335
0.141296
0.169067
0.142517
0.129089
0.155945
0.193176
0.206299
0.176392
0.174866
0.163269
0.0973511
0.0204468
-0.00488281
-0.0128174
-0.0982666
-0.124817
-0.0683594
-0.090332
-0.0964355
-0.116272
-0.108337
-0.0350952
0.0634766
0.144653
0.145874
0.0631714
-0.0259399
-0.0942993
-0.118713
-0.0881958
-0.142212
-0.218811
-0.293884
-0.353394
-0.258484
-0.0976562
0.0305176
0.131531
0.20813
0.241089
0.223694
0.101318
-0.0131226
-0.0430298
-0.0241089
-0.0415039
-0.0668335
-0.117493
-0.125732
-0.193481
-0.280457
-0.322571
-0.286865
-0.20874
-0.138245
-0.0564575
0.00213623
-0.0128174
-0.0613403
-0.0872803
-0.139771
-0.135498
-0.0143433
0.151062
0.249939
0.296631
0.218811
-0.00640869
-0.131226
-0.0997925
-0.0473022
-0.0292969
-0.0366211
-0.078125
-0.108643
-0.129089
-0.0891113
-0.0558472
-0.0662231
-0.0552368
-0.0494385
-0.0509644
-0.0537109
-0.0744629
-0.0790405
-0.0473022
0.0305176
0.147705
0.229492
0.219116
0.136414
0.0198364
-0.107117
-0.127258
-0.0595093
0.0695801
0.150757
0.144958
0.0421143
-0.039978
-0.0540161
-0.0762939
-0.0924683
-0.0564575
0.0473022
0.0973511
0.0759888
0.0384521
0.0790405
0.115662
0.186462
0.257874
0.245056
0.159302
-0.0845337
-0.230713
-0.235596
-0.157776
-0.0772095
0.0341797
0.18158
0.247803
0.179749
0.132446
0.2005
0.273743
0.241089
0.121765
0.0247192
-0.0964355
-0.227661
-0.284424
-0.310669
-0.291748
-0.202942
-0.158081
-0.145569
-0.124512
-0.104065
-0.020752
0.0485229
0.0634766
0.0827026
0.0238037
-0.0543213
-0.131836
-0.144043
-0.139465
-0.144653
-0.136414
-0.117188
-0.10498
-0.10498
-0.105896
-0.141296
-0.143738
-0.0592041
0.0762939
0.262451
0.346069
0.345764
0.29541
0.152893
-0.0128174
-0.115356
-0.10437
-0.032959
0.0152588
0.0332642
-0.0100708
-0.116882
-0.132751
-0.0671387
-0.0299072
-0.0335693
-0.0396729
-0.0473022
-0.11261
-0.142212
-0.128174
-0.0653076
0.0537109
0.16449
0.243225
0.22644
0.122986
0.0494385
0.0115967
-0.0354004
-0.0292969
0.0170898
0.0488281
0.0335693
0.0177002
0.0341797
0.0421143
0.000610352
-0.0415039
-0.0622559
-0.0765991
-0.123596
-0.166321
-0.109253
-0.0350952
-0.00396729
-0.00701904
0.0405884
0.0582886
0.0415039
0.0256348
0.0112915
-0.0332642
-0.0863647
-0.120239
-0.108337
-0.065918
0.0396729
0.110474
0.132751
0.12207
0.0491333
-0.0506592
-0.0964355
-0.132141
-0.153809
-0.14679
-0.113525
-0.0195312
0.0747681
0.0466919
-0.0112915
-0.0683594
-0.100098
-0.118103
-0.0778198
-0.00701904
0.0805664
0.209656
0.296631
0.316162
0.263367
0.172729
0.135193
0.161133
0.152588
0.140381
0.136108
0.128174
0.120544
0.102844
0.0662231
0.020752
-0.03479
-0.0820923
-0.0762939
-0.0802612
-0.0634766
-0.0244141
-0.015564
-0.0170898
-0.0283813
-0.0527954
-0.0598145
-0.039978
0.0192261
0.0448608
0.0473022
0.0531006
0.0875854
0.105286
0.136108
0.230713
0.29541
0.332642
0.397644
0.378113
0.271301
0.123901
0.00762939
0.00183105
-0.072937
-0.254822
-0.377808
-0.420227
-0.365601
-0.238342
-0.0628662
0.0448608
0.0982666
0.0665283
0.055542
0.00823975
-0.0534058
-0.0997925
-0.123596
-0.0427246
0.0933838
0.193176
0.208435
0.179749
0.109863
-0.0131226
-0.160217
-0.236511
-0.263672
-0.291138
-0.227356
-0.137024
-0.0845337
-0.0228882
0.015564
0.017395
0.00732422
0.0320435
0.0778198
0.0967407
0.088501
0.0637817
0.0302124
0.0378418
0.083313
0.110168
0.116577
0.0997925
0.0512695
0.0231934
0.00335693
0.0259399
0.0393677
0.0509644
0.0393677
0.0234985
0.0360107
0.0289917
-0.0152588
-0.0296021
0.0180054
0.0537109
0.115967
0.164795
0.196533
0.263367
0.302429
0.303345
0.25177
0.17334
0.11261
-0.0125122
-0.156555
-0.246277
-0.279541
-0.19104
-0.160522
-0.201721
-0.157776
-0.0811768
-0.00762939
0.0534058
0.101624
0.112915
0.0540161
0.0317383
0.0341797
0.0231934
0.0247192
0.0717163
0.0845337
0.0622559
0.0723267
0.0415039
-0.00793457
-0.0253296
-0.0714111
-0.131836
-0.205688
-0.236816
-0.221252
-0.145569
-0.0384521
0.00183105
-0.0192261
-0.0592041
-0.10376
-0.1297
-0.100403
-0.0460815
0.0140381
0.0604248
0.10437
0.126648
0.144958
0.154114
0.111084
0.0418091
-0.0128174
-0.0296021
-0.0317383
-0.0296021
-0.057373
-0.088501
-0.0418091
0.0933838
0.238647
0.355225
0.369568
0.311584
0.193176
0.100403
0.0543213
0.0119019
-0.0183105
0.00457764
-0.0534058
-0.155029
-0.227051
-0.204468
-0.14679
-0.0817871
-0.0442505
-0.020752
-0.0656128
-0.139465
-0.126648
-0.0775146
0.00579834
0.0686646
0.131226
0.0311279
-0.130005
-0.163269
-0.101318
-0.038147
-0.0241089
-0.00518799
-0.0158691
0.000305176
0.0198364
0.00427246
0.0088501
0.0393677
0.0390625
0.00946045
0
0.027771
-0.0512695
-0.0997925
-0.12085
-0.0308228
0.0576782
0.142517
0.218811
0.212402
0.184631
0.104675
0.0457764
0.000610352
-0.0726318
-0.113831
-0.0918579
-0.0250244
-0.00183105
-0.0177002
-0.0323486
-0.0765991
-0.183716
-0.262756
-0.215149
-0.0964355
-0.0265503
0.0430298
0.0891113
0.109253
0.0537109
-0.0161743
-0.0271606
-0.0177002
0
0.000610352
-0.0283813
-0.0491333
-0.0247192
-0.0424194
-0.0289917
0.0149536
0.0524902
0.151062
0.236511
0.229797
0.19989
0.161133
0.0540161
-0.141296
-0.22644
-0.17395
-0.164795
-0.163574
-0.0979614
-0.0280762
-0.0140381
-0.0259399
-0.0338745
-0.0491333
-0.00946045
0.0750732
0.155334
0.188904
0.138245
0.0582886
0.0354004
0.0350952
0.0210571
0.0222778
0.0805664
0.0848389
0.0308228
-0.0256348
-0.0454712
-0.0302124
-0.0106812
-0.00305176
0.0595093
0.179138
0.204773
0.0991821
-0.104065
-0.296631
-0.361023
-0.335693
-0.310364
-0.127258
0.108032
0.22644
0.187683
0.127869
0.0698853
0.0192261
0.0134277
0.0454712
0.090332
0.105896
0.093689
0.0427246
-0.0778198
-0.119324
-0.118408
-0.106201
-0.0421143
0.0152588
0.0640869
0.0741577
0.0656128
0.0610352
0.0695801
0.0665283
0.0643921
0.0860596
0.0283813
-0.0701904
-0.133362
-0.132446
-0.0921631
-0.0527954
0.0189209
0.06073
-0.00152588
-0.0891113
-0.121765
-0.102844
-0.0817871
-0.067749
-0.0701904
-0.0643921
-0.0341797
0.0244141
0.0616455
0.102234
0.0726318
-0.032959
-0.11261
-0.145874
-0.14801
-0.103455
0.0305176
0.114136
0.179749
0.177612
0.126343
0.0601196
0.00274658
0.0189209
-0.0143433
-0.0906372
-0.111389
-0.0323486
0.0256348
-0.00335693
-0.012207
0.00549316
0.020752
0.0183105
0.00946045
0.017395
0.0280762
0.0262451
0.0253296
0.0872803
0.13031
0.135498
0.112305
0.118713
0.119324
0.115662
0.0521851
-0.0271606
-0.062561
-0.0668335
-0.0906372
-0.0827026
-0.109558
-0.168762
-0.210876
-0.235291
-0.227966
-0.148315
-0.0198364
0.179443
0.306396
0.274658
0.196838
0.147095
0.0650024
-0.0161743
-0.0579834
-0.0265503
0.00762939
-0.00244141
0.0192261
0.0427246
0.0387573
0.0106812
-0.0106812
0.00671387
0.015564
0.0253296
0.038147
0.0491333
0.0875854
0.0256348
-0.0543213
-0.100403
-0.1474
-0.169067
-0.0582886
0.147705
0.252686
0.188293
0.0567627
-0.0360107
-0.0674438
-0.14679
-0.143127
-0.0741577
-0.0439453
0.00549316
0.0375366
0.0769043
0.162659
0.262451
0.260315
0.149841
0.0985718
0.0570679
-0.0112915
-0.0631714
-0.0762939
-0.0820923
-0.0088501
0.0830078
0.1474
0.184021
0.185242
0.0924683
-0.0634766
-0.126953
-0.103149
-0.0497437
-0.0241089
-0.0201416
-0.0524902
-0.0964355
-0.127869
-0.123291
-0.101929
-0.0619507
-0.0387573
-0.0283813
0.00640869
0.00823975
0.00579834
-0.0305176
-0.0665283
-0.0402832
-0.0222778
-0.0259399
-0.00915527
0.0524902
0.0814819
0.0814819
0.0787354
0.0354004
-0.0332642
-0.0997925
-0.132446
-0.130615
-0.102539
-0.0601196
-0.00671387
0.0689697
0.187378
0.19928
0.0942993
-0.00701904
-0.0912476
-0.188293
-0.204773
-0.115662
-0.0149536
0.0323486
0.000610352
-0.0320435
-0.0488281
-0.0640869
-0.117188
-0.142822
-0.118408
-0.0350952
0.0790405
0.223694
0.324402
0.297546
0.219116
0.133057
0.045166
-0.0427246
-0.105591
-0.0646973
0.119019
0.28595
0.381165
0.370789
0.288086
0.13031
-0.0308228
-0.0997925
-0.0909424
-0.0631714
-0.104675
-0.156555
-0.152588
-0.135803
-0.110474
-0.0976562
-0.0869751
-0.071106
-0.0689697
-0.0637817
0.0119019
0.0949097
0.144043
0.176086
0.218811
0.235291
0.235291
0.158386
0.0384521
-0.0466919
-0.0341797
-0.098877
-0.14801
-0.15686
-0.165405
-0.146179
-0.140991
-0.105896
-0.0161743
0.0430298
0.0335693
-0.00427246
-0.101624
-0.162964
-0.181885
-0.160828
-0.101929
-0.0170898
-0.0491333
-0.131836
-0.170898
-0.154114
-0.0982666
-0.0170898
0.109253
0.224915
0.259705
0.2771
0.285645
0.245056
0.114136
-0.0354004
-0.0918579
-0.103455
-0.127258
-0.124207
-0.0698853
-0.0106812
0.0283813
0.0411987
0.0460815
0.0305176
0.0488281
0.103455
0.153809
0.17334
0.155334
0.0695801
-0.0436401
-0.0564575
0.0012207
0.0866699
0.15564
0.210266
0.174561
0.0881958
0.0546265
0.0500488
0.0119019
-0.0354004
-0.0769043
-0.0906372
-0.0549316
-0.0167847
0.0732422
0.119629
0.105286
0.0476074
-0.00579834
-0.0253296
-0.0305176
-0.00793457
0.00823975
-0.0152588
-0.032959
-0.00762939
0.0146484
-0.00823975
-0.0570679
-0.0805664
-0.0827026
-0.0418091
0.0216675
0.06073
0.0967407
0.102844
0.130615
0.131226
0.108337
0.0570679
0.00427246
0.0140381
0.0643921
0.111084
0.0912476
0.0598145
0.0183105
0.00396729
-0.0100708
-0.00671387
0.0140381
0.0393677
0.0784302
0.137634
0.232849
0.26062
0.24292
0.1474
0
-0.156555
-0.185852
-0.106201
0.0183105
0.0524902
0.0869751
0.138855
0.248108
0.184021
-0.0326538
-0.207825
-0.283813
-0.300293
-0.221252
-0.0897217
0.00946045
0.0698853
0.0119019
-0.0820923
-0.115356
-0.134583
-0.11322
0.0723267
0.33844
0.515137
0.567932
0.492249
0.328979
0.0183105
-0.192871
-0.193481
-0.111389
-0.0289917
0.027771
0.00518799
-0.115356
-0.176697
-0.164185
-0.108643
-0.0421143
-0.00396729
-0.0271606
-0.0601196
-0.0485229
-0.0363159
-0.0436401
-0.065918
-0.093689
-0.088501
-0.085144
-0.0769043
-0.0735474
-0.0415039
-0.0198364
0.00518799
0.0164795
-0.0195312
-0.0402832
-0.0576782
-0.0909424
-0.0540161
0.0280762
0.121765
0.177917
0.188904
0.176086
0.0991821
0.106812
0.129395
0.111084
0.0213623
-0.0802612
-0.0866699
-0.0512695
-0.0891113
-0.111084
-0.152588
-0.233459
-0.2771
-0.271606
-0.229797
-0.166321
-0.0317383
0.120239
0.199585
0.236206
0.259399
0.260925
0.207214
0.16449
0.11322
0.0219727
0.0228882
0.0088501
-0.0152588
0.0210571
0.101318
0.174255
0.146179
0.0543213
-0.0436401
-0.202332
-0.335083
-0.286255
-0.19165
-0.103455
-0.027771
-0.0738525
-0.167542
-0.0939941
0.00488281
0.0228882
-0.0161743
-0.0546265
-0.0595093
-0.0796509
-0.0997925
-0.123596
-0.177307
-0.19104
-0.154419
-0.0918579
0.0234985
0.169983
0.343018
0.415039
0.353088
0.264893
0.181885
-0.0241089
-0.279236
-0.298767
-0.185852
-0.108337
0.0134277
0.154419
0.186462
0.133667
0.0515747
0.0164795
0.0183105
0.0143433
-0.027771
-0.0387573
-0.0320435
-0.0231934
-0.0198364
-0.0186157
-0.0308228
0.000610352
0.0802612
0.173645
0.182495
0.128174
0.0241089
-0.104675
-0.263062
-0.341797
-0.335388
-0.262756
-0.236816
-0.162048
-0.00518799
0.0759888
0.105591
0.137024
0.163269
0.166626
0.106201
-0.00854492
-0.0973511
-0.0680542
-0.0613403
-0.0497437
-0.0320435
-0.0289917
-0.0109863
-0.0167847
-0.0112915
-0.00732422
0.0228882
0.0619507
0.0723267
0.0531006
0.00823975
-0.0860596
-0.136108
-0.138245
-0.102844
-0.0302124
-0.0222778
-0.0360107
-0.0415039
-0.0250244
-0.0366211
-0.0415039
-0.00701904
0.0424194
0.0765991
0.098877
0.112305
0.108032
0.0476074
-0.0509644
-0.133057
-0.177307
-0.195312
-0.158081
-0.0692749
0.020752
0.0674438
0.0372314
-0.00823975
-0.0125122
-0.0314331
-0.0445557
-0.083313
-0.108948
-0.0979614
-0.0656128
-0.0283813
0.057373
0.163269
0.23468
0.269775
0.224915
0.192871
0.158081
0.1474
0.182495
0.190125
0.167542
0.1474
0.0570679
0.0759888
0.219116
0.380554
0.393372
0.26001
0.0817871
-0.157166
-0.37384
-0.483704
-0.439453
-0.267639
-0.108643
-0.0152588
0.0921631
0.164185
0.100403
-0.0115967
-0.112915
-0.18219
-0.20874
-0.0598145
0.109863
0.134583
0.093689
0.0592041
-0.00213623
-0.12207
-0.23407
-0.233459
-0.145264
-0.062561
-0.0448608
-0.0784302
-0.112305
-0.122375
-0.0430298
0.093689
0.267944
0.388489
0.403442
0.294495
0.173035
0.0720215
-0.0491333
-0.0717163
-0.0491333
0.00701904
0.101624
0.144348
0.103455
0.0576782
-0.0012207
-0.0643921
-0.0588989
-0.0216675
0.055542
0.117188
0.122986
0.124207
0.113525
0.0604248
0.0680542
0.0769043
0.0643921
0.0518799
0.00854492
-0.0643921
-0.0982666
-0.0576782
-0.0222778
-0.0109863
0.000915527
0.0189209
0
-0.0357056
-0.0692749
-0.0747681
-0.0552368
0.000305176
0.0735474
0.132751
0.158997
0.185242
0.177307
0.1297
-0.012207
-0.100098
-0.0640869
0.0686646
0.155945
0.239563
0.346069
0.384216
0.276184
0.0442505
-0.1297
-0.190735
-0.183411
-0.10498
-0.0189209
-0.0408936
-0.0442505
-0.0601196
-0.195923
-0.349731
-0.366516
-0.236816
-0.114136
0.00976562
0.221863
0.385132
0.331421
0.163879
-0.0527954
-0.17334
-0.131836
-0.0308228
0.039978
0.0796509
0.108337
0.0814819
0.0430298
0.0283813
-0.0369263
-0.085144
-0.0906372
-0.137024
-0.117493
-0.0704956
-0.0445557
-0.0335693
-0.0430298
-0.0418091
-0.0274658
-0.0875854
-0.187683
-0.275574
-0.274048
-0.186462
-0.0598145
0.106812
0.187378
0.220947
0.225525
0.193787
0.111084
-0.0250244
-0.0793457
-0.0741577
-0.0906372
-0.0613403
-0.0473022
-0.0402832
-0.0823975
-0.124512
-0.122375
-0.0604248
-0.00915527
-0.0204468
-0.00732422
0.00579834
-0.0183105
-0.0253296
-0.00610352
-0.0109863
0.0167847
0.124512
0.245972
0.307312
0.293579
0.233154
0.13855
0.00946045
-0.184937
-0.26886
-0.231018
-0.200195
-0.188599
-0.162659
-0.027771
0.0820923
0.114746
0.118713
0.119019
0.115967
0.098877
0.127869
0.13855
0.0616455
-0.108032
-0.306702
-0.446777
-0.321045
-0.142517
-0.0341797
0.0466919
-0.00152588
-0.117188
-0.137024
-0.119629
-0.083313
0.000610352
0.0372314
0.0289917
0.00946045
0.0686646
0.0628662
-0.0186157
-0.0546265
0.0228882
0.135803
0.202026
0.275574
0.335693
0.161438
-0.155945
-0.260315
-0.271606
-0.289001
-0.25238
-0.209045
-0.177917
-0.167542
-0.130005
-0.101013
-0.0772095
-0.0878906
-0.0830078
-0.0476074
-0.00152588
-0.0216675
-0.0854492
-0.0888062
-0.0753784
-0.0613403
-0.0717163
-0.0924683
-0.0842285
-0.0506592
-0.0363159
-0.039978
-0.0384521
0.000305176
-0.0158691
-0.050354
-0.0558472
-0.0561523
-0.0234985
0.015564
0.0701904
0.0888062
0.0616455
0.032959
0.0180054
0.00488281
0.00610352
0.0192261
0.0231934
0.0137329
0.00915527
-0.00457764
-0.0183105
-0.017395
-0.00549316
0.0363159
0.113831
0.215759
0.338135
0.433655
0.496216
0.52948
0.461426
0.250854
0.0772095
-0.0894165
-0.173035
-0.249023
-0.346375
-0.386963
-0.377197
-0.304871
-0.200195
-0.118713
-0.0515747
0.0445557
0.18158
0.271301
0.245056
0.0827026
-0.115051
-0.214844
-0.188904
-0.0930786
0.0744629
0.119629
0.0286865
-0.134888
-0.240479
-0.310669
-0.270081
-0.0698853
0.122375
0.229797
0.278015
0.214539
0.0601196
-0.0540161
-0.0961304
-0.0842285
-0.133057
-0.169678
-0.162354
-0.122986
-0.0643921
0.0302124
0.0881958
0.121765
0.170898
0.187988
0.143738
0.0750732
0.000305176
-0.0997925
-0.206299
-0.241394
-0.256042
-0.22644
-0.160828
-0.121765
-0.0567627
0.0268555
0.0317383
0.0109863
0.00640869
0.00335693
0.00396729
-0.015564
-0.0299072
-0.00946045
-0.00610352
-0.0128174
-0.0125122
-0.00762939
0.010376
0.00915527
0.00671387
-0.00640869
0.0112915
0.0241089
0.0445557
0.0656128
0.0921631
0.0894165
0.078125
0.0933838
0.130615
0.159607
0.161743
0.124207
0.103149
0.0982666
0.0994873
0.131226
0.172119
0.267944
0.381165
0.431213
0.392151
0.302124
0.186157
-0.10437
-0.295105
-0.251465
-0.156555
-0.167236
-0.123596
-0.0738525
-0.0274658
-0.00396729
-0.0106812
-0.106812
-0.25177
-0.33844
-0.397644
-0.405579
-0.308838
-0.170898
-0.0482178
0.0369263
0.0946045
0.117188
0.0750732
0.0131226
-0.0241089
-0.0210571
-0.00946045
-0.0244141
-0.0372314
-0.0378418
-0.0582886
-0.103149
-0.0820923
0.083313
0.155945
0.158081
0.194397
0.237427
0.275269
0.204163
0.0387573
-0.0643921
-0.119629
-0.166321
-0.166321
-0.155334
-0.126038
-0.117188
-0.0927734
-0.0662231
-0.0482178
-0.0378418
-0.0387573
-0.0387573
-0.039978
-0.0213623
-0.00244141
0
-0.0143433
-0.00762939
-0.00823975
-0.0012207
0.00274658
0.00946045
0.0241089
0.017395
0.0457764
0.0692749
0.0756836
0.0460815
0.0360107
0.0576782
0.0860596
0.108032
0.141907
0.187378
0.170288
0.14801
0.153198
0.155029
0.140686
0.117493
0.0686646
-0.0650024
-0.133057
-0.0949097
-0.101929
-0.100098
0.0332642
0.183411
0.356445
0.495911
0.544434
0.428162
0.219727
0.0161743
-0.232544
-0.381775
-0.406189
-0.49469
-0.451965
-0.316772
-0.176086
-0.108337
0.0335693
0.0543213
-0.0274658
-0.0952148
-0.0973511
-0.0912476
-0.0463867
0.00244141
0.0372314
0.0448608
0.0500488
0.0668335
0.0442505
-0.0231934
-0.0311279
0.0125122
0.0579834
0.0448608
0.0372314
0.0131226
0.0241089
0.0790405
0.148621
0.159607
0.141296
0.104065
0.0497437
0.0430298
0.198059
0.41748
0.519409
0.498352
0.380859
0.162964
-0.109253
-0.234985
-0.344543
-0.404358
-0.442505
-0.391541
-0.276489
-0.148315
-0.0674438
-0.0283813
-0.00152588
0.0418091
0.0881958
0.166321
0.213013
0.200806
0.155945
0.0119019
-0.0704956
-0.117798
-0.118408
-0.117493
-0.0796509
-0.0637817
-0.0253296
0.00762939
0.00946045
0.0146484
0.0100708
0.00701904
0.0149536
0
-0.0170898
-0.0234985
-0.0308228
-0.00671387
0.0552368
0.10437
0.155945
0.21637
0.228271
0.193787
0.190125
0.196838
0.126343
-0.0158691
-0.110474
-0.0753784
-0.0540161
-0.0366211
-0.00610352
0.0231934
-0.0341797
-0.137634
-0.202942
-0.25177
-0.266418
-0.153503
-0.0292969
0.0506592
0.0836182
-0.00366211
-0.0726318
-0.115967
-0.115051
-0.0564575
0.0326538
0.115356
0.156555
0.199585
0.179749
0.137024
0.117798
0.145874
0.162048
0.11261
0.0939941
0.0521851
-0.0671387
-0.213013
-0.241394
-0.19165
-0.194092
-0.140991
-0.0146484
0.0686646
0.085144
0.110168
0.140076
0.191956
0.176392
0.144653
0.102844
0.0985718
0.1297
0.171814
0.204163
0.166016
0.0927734
0.0827026
0.0363159
-0.0552368
-0.141296
-0.224609
-0.250854
-0.231018
-0.163574
-0.0894165
0.00457764
0.0466919
0.120239
0.151062
0.150146
0.120239
0.057373
0.0817871
0.138855
0.209656
0.288391
0.333252
0.151978
-0.0765991
-0.211182
-0.26886
-0.278015
-0.252075
-0.176086
-0.0799561
-0.00335693
0.0488281
0.0845337
0.0869751
0.0296021
-0.00915527
-0.0656128
0.0415039
0.172424
0.263367
0.278015
0.212708
0.0845337
-0.0939941
-0.183716
-0.159912
-0.151672
-0.174255
-0.229797
-0.317993
-0.30304
-0.209961
-0.131836
-0.0588989
0.03479
0.0860596
0.0784302
0.0814819
0.111389
0.0668335
-0.00915527
-0.0418091
0.00671387
0.0567627
0.0698853
0.0753784
0.065918
0.0506592
0.0326538
0.0390625
0.0735474
0.136108
0.207825
0.2005
0.13916
0.0537109
-0.00915527
-0.0531006
-0.0491333
0.0164795
0.162354
0.230103
0.218201
0.209045
0.206299
0.170288
0.0820923
-0.0231934
-0.150146
-0.247192
-0.23468
-0.184326
-0.170898
-0.162048
-0.145569
-0.108337
-0.032959
0.0552368
0.131226
0.158386
0.14801
0.0942993
0.00640869
-0.00213623
0.0549316
0.0750732
0.0195312
-0.0198364
-0.118408
-0.210876
-0.206299
-0.131836
-0.0512695
-0.017395
0.0286865
0.0634766
-0.00793457
-0.072937
-0.050354
-0.0231934
-0.0210571
-0.0112915
-0.057373
-0.0509644
-0.0286865
-0.0137329
-0.0466919
-0.102234
-0.109558
-0.090332
-0.0836182
-0.0765991
-0.0967407
-0.121765
-0.1297
-0.121155
-0.0695801
0.020752
0.0830078
0.0531006
0.0183105
0.00762939
0.00610352
-0.0183105
-0.00335693
0.00915527
0.000915527
-0.0112915
-0.0241089
0.00488281
0.0137329
-0.0128174
-0.00396729
0.0360107
0.0756836
0.114136
0.180664
0.219421
0.214233
0.262756
0.296326
0.266418
0.210571
0.303955
0.245972
0.113525
-0.0424194
-0.180359
-0.215149
-0.120239
0.00762939
0.148315
0.238953
0.183716
-0.0292969
-0.183411
-0.20874
-0.185852
-0.13916
-0.0296021
0.0442505
0.0576782
0.0482178
0.0585938
0.00610352
-0.0402832
-0.0350952
-0.0848389
-0.154724
-0.152588
-0.112305
-0.114441
-0.115051
-0.100403
-0.0897217
-0.0500488
0.0262451
0.0320435
0.032959
0.0402832
0.0115967
-0.0088501
-0.0469971
-0.0686646
-0.0592041
-0.0881958
-0.109253
-0.0570679
0.0616455
0.170898
0.273743
0.215454
0.126038
0.0546265
0.00610352
-0.0222778
-0.107422
-0.184937
-0.193176
-0.223389
-0.250244
-0.247192
-0.215759
-0.110168
0.0793457
0.255127
0.302429
0.230713
0.0463867
-0.194397
-0.256958
-0.165405
0.0106812
0.189819
0.250244
0.184021
0.0213623
-0.140076
-0.116882
-0.038147
0.0088501
0.0357056
0.0393677
0.0784302
0.13092
0.203552
0.27832
0.274658
0.186462
0.11261
0.0894165
0.0790405
0.0515747
0.0204468
0.0720215
0.210876
0.337219
0.325928
0.238647
0.187988
0.0650024
-0.0558472
-0.115356
-0.127869
-0.0790405
-0.0323486
-0.0564575
-0.085144
-0.0558472
-0.0238037
-0.0653076
-0.0958252
-0.0842285
-0.0894165
-0.122375
-0.159302
-0.173645
-0.184326
-0.145264
-0.0332642
-0.0152588
-0.0491333
-0.0186157
-0.0088501
0.00762939
0.0610352
0.0628662
-0.0323486
-0.093689
-0.1297
-0.176086
-0.185852
-0.118713
-0.126038
-0.137329
-0.0650024
-0.0515747
-0.0985718
-0.0933838
-0.0613403
-0.0314331
0.0881958
0.212097
0.267944
0.319214
0.338135
0.129089
-0.105591
-0.110168
-0.137329
-0.242615
-0.226135
-0.116882
-0.0283813
-0.00549316
-0.00305176
0
0.0341797
0.0384521
0.00213623
0.0012207
0.0146484
0.0500488
0.0680542
0.0881958
0.0869751
0.118103
0.162659
0.210571
0.146484
0.00579834
-0.0701904
-0.0448608
-0.0247192
-0.0250244
-0.0106812
0.0680542
0.163574
0.235901
0.271301
0.282288
0.226746
0.0875854
-0.0357056
-0.112305
-0.159607
-0.198059
-0.215454
-0.246277
-0.25238
-0.203247
-0.148315
-0.102234
-0.0320435
0.0253296
0.0134277
-0.0210571
0.0189209
0.0137329
0.0656128
0.126648
0.172424
0.115662
0.00793457
-0.111389
-0.108948
-0.0668335
0.0695801
0.325623
0.432129
0.319519
0.0827026
-0.0985718
-0.15686
-0.145264
-0.137024
-0.163879
-0.106201
-0.0805664
-0.0366211
0.116272
0.288696
0.415955
0.46875
0.427551
0.209656
-0.0628662
-0.279541
-0.421448
-0.46814
-0.366516
-0.219727
-0.109558
0.0115967
0.144958
0.197144
0.172424
0.0927734
0.0186157
-0.0271606
-0.0924683
-0.136414
-0.135803
-0.12085
-0.104065
-0.149536
-0.152283
-0.142822
-0.0900269
0.0323486
0.210266
0.352478
0.423584
0.396729
0.226746
-0.0164795
-0.180054
-0.231934
-0.169678
-0.0915527
-0.0949097
-0.113831
-0.0769043
-0.0405884
-0.0158691
0.0167847
0.0543213
0.0582886
0.0411987
0.0323486
0.017395
0.000915527
-0.0387573
-0.0784302
-0.0708008
-0.050354
-0.0253296
-0.0338745
-0.0314331
-0.0289917
0.0143433
0.0222778
0.0137329
-0.0582886
-0.108032
-0.111084
-0.119324
-0.0497437
0.0732422
0.173645
0.153503
0.128784
0.187683
0.264893
0.353088
0.505371
0.637817
0.693054
0.632629
0.46051
0.199585
-0.142212
-0.290222
-0.301208
-0.156555
0.0146484
0.03479
-0.0305176
-0.14679
-0.231934
-0.296936
-0.332947
-0.283508
-0.170288
-0.0259399
0.0335693
0.0683594
0.139771
0.216064
0.215149
0.0674438
0.00488281
-0.012207
-0.0631714
-0.121765
-0.123596
-0.0827026
-0.115967
-0.202942
-0.238953
-0.21637
-0.191956
-0.144653
-0.0979614
-0.0726318
-0.0463867
-0.00854492
0.0372314
0.0247192
0.0372314
-0.00457764
-0.0292969
-0.0808716
-0.0756836
-0.00427246
0.0390625
0.0497437
0.0769043
0.108643
0.124207
0.127258
0.0875854
0.0262451
-0.0216675
-0.0564575
-0.0769043
-0.0869751
-0.0799561
-0.0588989
-0.0466919
-0.0341797
-0.0204468
0.0134277
0.0363159
0.0271606
0.0515747
0.090332
0.11261
0.186768
0.227356
0.221558
0.240173
0.336609
0.373535
0.285034
0.143738
0.03479
-0.184631
-0.317688
-0.345154
-0.249023
-0.113831
-0.0384521
0.0314331
0.0723267
0.0726318
-0.0332642
-0.102844
-0.0570679
0.0521851
0.127258
0.137024
0.184937
0.184021
0.114441
0.0708008
0.0137329
-0.114441
-0.205688
-0.227661
-0.184937
-0.0860596
0.0802612
0.204468
0.193787
0.202026
0.256958
0.235596
0.171814
0.0704956
-0.119324
-0.210571
-0.194092
-0.158386
-0.124207
-0.125122
-0.17395
-0.220032
-0.219116
-0.152588
-0.0976562
-0.0283813
-0.0241089
-0.0723267
-0.0613403
-0.0979614
-0.098877
0.00793457
0.131836
0.179138
0.178833
0.187988
0.185547
0.184021
0.209351
0.188293
0.137939
0.0531006
0.0192261
0.0509644
0.0863647
0.151062
0.192871
0.179443
0.0927734
-0.0012207
-0.0469971
-0.0787354
-0.13916
-0.167847
-0.152283
-0.101624
-0.0814819
-0.0784302
-0.0543213
-0.0497437
-0.0527954
-0.0460815
-0.0289917
-0.0143433
0.0332642
0.0479126
0.0274658
-0.0283813
-0.0753784
-0.071106
-0.0585938
0
0.105896
0.192871
0.185242
0.124207
0.00396729
-0.0952148
-0.139465
-0.0854492
-0.0473022
0.00396729
0.0308228
0.0387573
0.020752
0.0360107
0.0158691
-0.00183105
0.0253296
0.0363159
0.0448608
0.0296021
0.0668335
0.148315
0.239258
0.28717
0.228271
0.140686
0.0531006
0.113525
0.279846
0.435486
0.460205
0.293884
0.093689
0.000305176
0.0933838
0.197144
0.224304
0.32135
0.458984
0.292664
-0.0256348
-0.184021
-0.279236
-0.330811
-0.349426
-0.363159
-0.33844
-0.26825
-0.196533
-0.140381
-0.108643
-0.131226
-0.147705
-0.131226
-0.0799561
-0.0601196
-0.0582886
-0.0695801
-0.0650024
-0.0259399
0.0265503
0.0646973
0.0827026
0.0704956
0.0558472
0.0289917
0.0302124
0.0469971
0.0720215
0.0857544
0.0823975
0.00244141
-0.0509644
-0.0909424
-0.107117
-0.123596
-0.139465
-0.112915
-0.0650024
-0.0393677
-0.0363159
-0.0552368
-0.0610352
-0.0646973
-0.0369263
-0.0201416
-0.0350952
-0.0234985
-0.0253296
-0.0268555
-0.0201416
-0.0088501
-0.0219727
-0.0177002
-0.0115967
0.0131226
0.0674438
0.122681
0.227661
0.342712
0.42511
0.454407
0.412598
0.316467
0.151062
-0.0305176
-0.143127
-0.170898
-0.129395
-0.126038
-0.155334
-0.141602
-0.0897217
-0.0842285
-0.0964355
-0.0735474
0
0.0772095
0.139771
0.257568
0.310364
0.210876
0.0897217
-0.0231934
-0.172729
-0.320129
-0.273132
-0.117493
0.0378418
0.137634
0.226746
0.242004
0.0973511
-0.0958252
-0.139771
-0.102234
-0.00701904
-0.0222778
-0.0720215
-0.0765991
-0.0759888
-0.0753784
-0.09552
-0.090332
-0.106812
-0.127258
-0.0952148
-0.0372314
0.0418091
0.121155
0.197144
0.204773
0.191956
0.10376
-0.0271606
-0.125122
-0.145264
-0.135193
-0.0375366
0.0271606
0.0360107
0.0253296
-0.0332642
-0.0909424
-0.133362
-0.132141
-0.0848389
-0.0244141
-0.0149536
-0.010376
-0.00427246
-0.015564
-0.0442505
-0.0765991
-0.0842285
-0.0579834
-0.00732422
0.0784302
0.187378
0.245361
0.243225
0.146179
0.00762939
-0.146179
-0.25116
-0.221863
-0.0939941
0.0296021
0.0973511
0.0802612
0.0128174
-0.0265503
-0.0302124
-0.0631714
0.0149536
0.0964355
0.0720215
-0.0320435
-0.137329
-0.17334
-0.0888062
-0.0372314
0.0549316
0.0985718
0.0778198
0.0701904
0.0195312
-0.121155
-0.117493
-0.00854492
0.0952148
0.21759
0.378418
0.430298
0.376587
0.194092
-0.106201
-0.318298
-0.310669
-0.272827
-0.174866
-0.072937
0.0457764
0.141296
0.178833
0.10437
-0.0274658
-0.126038
-0.206604
-0.238647
-0.235596
-0.20813
-0.22522
-0.179443
-0.0976562
-0.0820923
-0.120239
-0.173645
-0.160522
-0.124512
-0.0372314
0.0439453
0.118713
0.160828
0.0692749
-0.117493
-0.282288
-0.341797
-0.240784
0.0146484
0.24292
0.334167
0.374146
0.341492
0.245056
0.153198
0.183105
0.213623
0.269165
0.270386
-0.0262451
-0.349731
-0.354309
-0.316772
-0.303345
-0.259094
-0.241394
-0.231018
-0.212708
-0.225525
-0.188904
-0.101318
0.00457764
0.0976562
0.263672
0.349121
0.370483
0.34729
0.337524
0.310974
0.055542
-0.360413
-0.561218
-0.537415
-0.436707
-0.350037
-0.309143
-0.233154
-0.0909424
0.0570679
0.242615
0.369873
0.365295
0.369568
0.324402
0.244751
0.187073
0.143738
0.0289917
-0.0845337
-0.00427246
0.168762
0.250244
0.198059
0.00488281
-0.177917
-0.176392
-0.181885
-0.180664
-0.0961304
-0.0210571
-0.0506592
-0.0845337
-0.127258
-0.133362
-0.140381
-0.176086
-0.18219
-0.179443
-0.205994
-0.184021
-0.104065
-0.0405884
0.0146484
0.0549316
0.0326538
0.0180054
0.0088501
-0.0189209
-0.0372314
-0.0521851
-0.0460815
-0.0296021
0.00274658
-0.0219727
-0.0375366
-0.0286865
-0.0274658
-0.0430298
-0.0286865
0.0317383
0.118408
0.220947
0.292053
0.250549
0.117188
-0.120239
-0.250549
-0.223694
-0.134277
-0.0656128
-0.0427246
-0.0411987
-0.020752
0.00671387
0.00793457
0.00152588
0
0.0012207
0.00244141
-0.022583
-0.0210571
-0.0012207
0.0338745
0.0912476
0.125427
0.123901
0.0863647
0.0561523
0.0265503
0.00823975
0.0140381
0.03479
0.0784302
0.152893
0.211182
0.309143
0.428467
0.542908
0.544128
0.480652
0.388489
0.321655
0.199585
0.0656128
0.0387573
0.0204468
-0.0485229
-0.107727
-0.0491333
-0.0579834
-0.127258
-0.169373
-0.243225
-0.322876
-0.333252
-0.262756
-0.155945
-0.0366211
0.0704956
0.0643921
0.0408936
0.0222778
0.0262451
0.107422
0.207214
0.272522
0.192261
0.010376
-0.165405
-0.274963
-0.348816
-0.292664
-0.105286
0.0378418
0.0839233
0.0680542
0.00823975
-0.027771
-0.00305176
0.0299072
0.0646973
0.0723267
0.0192261
-0.0366211
-0.100403
-0.119934
-0.108337
-0.109253
-0.100098
-0.0338745
-0.00640869
-0.0137329
-0.0375366
-0.039978
-0.0241089
0.0323486
0.137939
0.260925
0.178833
0.0241089
-0.10376
-0.156555
-0.195618
-0.198364
-0.142822
-0.111084
-0.0912476
0.0396729
0.14679
0.175171
0.192566
0.212708
0.215759
0.21698
0.212402
0.162048
0.0842285
0.0216675
0.0192261
0.0640869
0.0869751
0.098877
0.109253
0.098877
0.0595093
0.0119019
-0.0415039
-0.0326538
0.0820923
0.204468
0.239258
0.204163
0.137634
0.0653076
0.0671387
0.093689
0.150757
0.160828
0.160828
0.0558472
0.000915527
0.0418091
0.067749
0.0799561
0.0521851
0.00854492
-0.017395
-0.0320435
-0.0576782
-0.0439453
-0.105896
-0.171509
-0.0997925
-0.0115967
0.0506592
0.0759888
0.0598145
-0.0436401
-0.113525
-0.10437
-0.0518799
-0.0323486
-0.117493
-0.0933838
-0.00183105
-0.0115967
-0.0543213
0.0177002
0.142517
0.175476
0.125732
0.00671387
-0.0839233
-0.125427
-0.1828
-0.177307
-0.1651
-0.141907
-0.122681
-0.137024
-0.134888
-0.134888
-0.131531
-0.127258
-0.120544
-0.0912476
-0.0128174
0.0326538
0.0598145
0.0915527
0.111389
0.108948
0.0878906
0.0701904
0.0363159
-0.00183105
0.00671387
0.0671387
0.135803
0.112915
0.0506592
0.000610352
-0.0772095
-0.152283
-0.150757
-0.128479
-0.0827026
0.0177002
0.0918579
0.119934
0.0927734
0.0726318
0.109253
0.128479
0.105896
0.107117
0.122375
0.118408
0.0430298
-0.020752
-0.0204468
0.00305176
0
-0.00305176
-0.00701904
-0.0161743
0
0.103455
0.215149
0.296326
0.328369
0.281372
0.00671387
-0.267639
-0.320129
-0.213623
-0.0213623
0.221863
0.47699
0.618591
0.539551
0.316162
0.0875854
0.000915527
0.0582886
0.0750732
-0.0210571
-0.113831
-0.126343
-0.0961304
-0.106201
-0.109253
-0.0961304
-0.039978
-0.0836182
-0.221252
-0.33844
-0.320129
-0.261841
-0.21759
-0.173645
-0.115967
-0.111389
-0.171204
-0.228577
-0.246277
-0.19928
-0.127258
-0.00762939
0.110474
0.135498
0.1297
0.0769043
0.0512695
0.0610352
0.0866699
0.0985718
0.102844
0.0531006
-0.0488281
-0.128784
-0.150146
-0.138245
-0.108948
-0.0686646
-0.0137329
-0.00366211
-0.00640869
-0.0204468
-0.032959
-0.0717163
-0.0714111
-0.0588989
-0.0271606
-0.017395
-0.00579834
0.000305176
0.0357056
0.0787354
0.0997925
0.149231
0.201111
0.231934
0.20874
0.163269
0.195007
0.200806
0.126038
0.0863647
0.0421143
0.00732422
-0.00762939
-0.0488281
-0.112
-0.138855
-0.128479
-0.043335
0.0762939
0.114441
0.0756836
0.0158691
-0.0863647
-0.126953
-0.0949097
0.0192261
0.0747681
0.102539
0.133362
0.137024
0.123291
0.120544
0.0588989
-0.0180054
-0.143127
-0.22583
-0.205994
-0.135803
-0.0509644
0.00183105
0.027771
0.0167847
-0.0134277
-0.0637817
-0.0912476
-0.110474
-0.0674438
0.0131226
0.0167847
0.0384521
0.057373
0.0466919
-0.00793457
-0.0738525
-0.0698853
-0.0491333
-0.0320435
-0.0494385
-0.0561523
-0.0231934
0.0613403
0.159607
0.21698
0.159302
0.0595093
-0.0454712
-0.136719
-0.157471
-0.117798
-0.0222778
0.0546265
0.0686646
0.101624
0.12085
0.0338745
-0.0570679
-0.101013
-0.140686
-0.161743
-0.155334
-0.116272
-0.0704956
-0.0698853
-0.0717163
-0.0683594
-0.0531006
-0.0460815
-0.0357056
-0.0314331
0.000915527
0.0582886
0.0698853
0.0564575
0.0662231
0.0549316
0.0106812
-0.0183105
0.00244141
0.0460815
0.0686646
0.0509644
0.0640869
0.0796509
0.126038
0.245361
0.405579
0.499268
0.481873
0.314636
0.101624
-0.121155
-0.224915
-0.119934
0.00915527
0.0894165
0.104675
0.0616455
-0.0112915
-0.0494385
-0.0439453
-0.0216675
-0.100403
-0.250549
-0.263367
-0.154114
-0.0408936
0.071106
0.0723267
-0.0537109
-0.108948
-0.0714111
-0.0283813
0.0253296
0.0442505
0.0244141
-0.00274658
0.00335693
-0.00610352
-0.0299072
-0.0643921
-0.0946045
-0.179443
-0.196533
-0.14679
-0.107727
-0.0408936
-0.0231934
-0.0634766
-0.107117
-0.121765
-0.143738
-0.146179
-0.0845337
-0.0100708
0.00213623
0.00213623
0.107727
0.183716
0.146179
0.125122
0.128479
0.0753784
-0.0546265
-0.12085
-0.0350952
0.0360107
0.0271606
-0.00518799
-0.0418091
-0.0357056
-0.0146484
-0.0405884
-0.0466919
-0.0289917
-0.062561
-0.0650024
-0.0204468
0.0445557
0.0817871
0.0741577
0.0646973
0.0598145
0.0732422
0.0970459
0.0357056
-0.0152588
0.00946045
0.00915527
0.0100708
0.032959
0.0808716
0.140991
0.230713
0.297241
0.241699
0.085144
-0.0393677
-0.0372314
-0.017395
-0.0012207
-0.0296021
-0.0100708
0.0323486
0.11322
0.231934
0.23407
0.0622559
-0.152893
-0.197144
-0.239563
-0.183716
-0.0662231
0.0546265
0.0357056
-0.0665283
-0.122986
-0.150146
-0.13855
-0.127563
-0.115967
-0.122681
-0.120544
-0.117493
-0.0924683
-0.0598145
-0.0747681
-0.0881958
-0.124207
-0.133362
-0.0994873
0.0537109
0.166931
0.210876
0.218506
0.263062
0.224304
0.0994873
-0.0808716
-0.0531006
-0.00976562
-0.0296021
-0.0256348
0.0445557
0.0994873
0.0650024
0.0213623
0.0152588
0.0454712
0.038147
0.0796509
0.177002
0.184937
0.0817871
-0.020752
-0.010376
0.0106812
-0.0271606
-0.115967
-0.150757
-0.119324
-0.0299072
0.0582886
0.10437
0.124817
0.0650024
-0.0866699
-0.162048
-0.150452
-0.090332
-0.0308228
0.0241089
0.0808716
0.153503
0.213013
0.167542
0.114746
0.0802612
-0.0241089
-0.155029
-0.19104
-0.18158
-0.130005
-0.0543213
-0.00488281
0.0131226
-0.00701904
-0.0012207
0.00946045
0.00946045
-0.0369263
-0.0741577
-0.0906372
-0.139465
-0.153809
-0.105286
-0.0390625
0.0338745
0.1297
0.135498
-0.0280762
-0.143433
-0.159302
-0.107117
-0.083313
-0.0341797
0.043335
0.103455
0.137939
0.145264
0.117798
0.0744629
0.0100708
-0.0430298
-0.0598145
-0.112305
-0.155334
-0.134277
-0.108337
-0.0991821
-0.0735474
-0.0576782
-0.0479126
0.0119019
0.0582886
0.0134277
-0.0488281
-0.100708
-0.119019
-0.112
-0.128479
-0.09552
-0.071106
-0.067749
-0.0534058
-0.0332642
-0.00213623
0.0106812
0.0360107
0.0784302
0.150452
0.172424
0.174255
0.134888
0.0598145
-0.0460815
-0.161133
-0.193481
-0.162048
-0.0830078
-0.0296021
-0.0204468
-0.0112915
-0.039978
-0.104065
-0.12085
-0.10437
-0.0997925
-0.12207
-0.137024
-0.111389
-0.0201416
0.0204468
-0.00183105
-0.0387573
-0.0576782
-0.0686646
-0.0305176
0.0408936
0.141296
0.1651
0.184631
0.189514
0.157471
0.0466919
0.00183105
-0.0656128
-0.109863
-0.100708
-0.122375
-0.166321
-0.144958
-0.0704956
-0.0253296
0.00274658
-0.0131226
-0.0637817
-0.103149
-0.154419
-0.160217
-0.122375
-0.0820923
0.00579834
0.125732
0.0360107
-0.0442505
0.136108
0.360413
0.437927
0.382996
0.270386
0.0769043
-0.154114
-0.249023
-0.215759
-0.194397
-0.205383
-0.205994
-0.14801
-0.135803
-0.169983
-0.177917
-0.187988
-0.258484
-0.288086
-0.238953
-0.172729
-0.0973511
-0.00152588
0.108948
0.120239
0.108032
0.038147
-0.0161743
-0.0363159
0.00823975
0.0506592
0.0317383
-0.0119019
-0.0357056
-0.00610352
0.0442505
0.0717163
0.083313
0.100098
0.0921631
0.0692749
0.0726318
0.0720215
0.0701904
0.0500488
0.0460815
0.0286865
0.039978
0.0808716
0.101929
0.107727
0.123291
0.113525
0.0848389
0.0839233
0.153198
0.232849
0.215759
0.167847
0.143738
0.172729
0.205994
0.300598
0.37323
0.48645
0.528564
0.480957
0.331421
0.072937
-0.0686646
-0.065918
-0.0366211
-0.00213623
0.0268555
0.0296021
0.0442505
0.0708008
0.0912476
0.125732
0.267944
0.394287
0.458374
0.451965
0.432434
0.352783
0.193787
0.093689
0.0866699
0.055542
0.0601196
0.102234
0.114136
0.132141
0.106506
0.0332642
-0.0323486
-0.0357056
0.0808716
0.265808
0.392456
0.33905
0.289001
0.147705
-0.00366211
-0.0112915
0.0717163
0.178223
0.295715
0.338745
0.347595
0.365295
0.351257
0.279541
0.202942
0.166931
0.0674438
-0.0698853
-0.131226
-0.118103
-0.0863647
-0.0369263
0.010376
0.0228882
0.000915527
0.0164795
0.0552368
0.0668335
0.0744629
0.062561
0.072937
0.113525
0.129089
0.12146
0.111694
0.10437
0.0814819
0.0354004
0.000915527
0.0112915
0.0802612
0.115662
0.0860596
0.0704956
0.0970459
0.127258
0.158081
0.245667
0.24231
0.213623
0.195312
0.145569
0.0796509
0.06073
0.0708008
0.0973511
0.174561
0.258789
0.305786
0.272827
0.24231
0.211182
0.0857544
-0.0839233
-0.157776
-0.157776
-0.0878906
-0.0601196
-0.0286865
-0.0454712
-0.050354
-0.0213623
0.0790405
0.187378
0.180664
0.1474
0.0674438
-0.0143433
-0.0900269
-0.0994873
-0.0332642
-0.0350952
-0.0253296
0.0497437
0.228271
0.347595
0.397644
0.393066
0.312805
0.127563
-0.0299072
-0.0967407
-0.072937
-0.0421143
-0.0961304
-0.11261
-0.0671387
-0.0888062
-0.146484
-0.171814
-0.101318
-0.0558472
-0.0585938
-0.0790405
-0.0689697
-0.0772095
-0.125427
-0.194092
-0.223999
-0.22522
-0.162659
-0.0390625
0.0421143
0.0900269
0.0723267
0.0289917
0.00579834
-0.0213623
-0.0320435
-0.0717163
-0.140381
-0.172119
-0.153503
-0.127258
-0.0698853
0.00213623
0.050354
0.0485229
0.0518799
0.0405884
0.00244141
-0.0393677
-0.0442505
-0.0704956
-0.0854492
-0.0753784
-0.0366211
-0.020752
-0.0186157
0.00823975
-0.0177002
-0.071106
-0.0994873
-0.101624
-0.0750732
-0.0839233
-0.09552
-0.0827026
-0.0250244
-0.00335693
0.0534058
0.170593
0.176392
0.0482178
-0.105286
-0.219116
-0.280762
-0.232849
-0.093689
0.0521851
0.232239
0.363464
0.380554
0.329895
0.207825
0.0909424
0.112
0.117493
-0.0961304
-0.312805
-0.245056
-0.196533
-0.244446
-0.311584
-0.412903
-0.470581
-0.439758
-0.259399
-0.106506
-0.0521851
-0.111389
-0.192261
-0.299988
-0.239868
-0.0949097
-0.0463867
-0.0863647
-0.137024
-0.140076
-0.138245
-0.119934
-0.144348
-0.184021
-0.176086
-0.113831
-0.0509644
0.00732422
0.06073
0.0958252
0.0793457
-0.00152588
-0.0872803
-0.109863
-0.151062
-0.218506
-0.302429
-0.390625
-0.406494
-0.396729
-0.368042
-0.267029
-0.148621
-0.0958252
-0.088501
-0.0924683
-0.0985718
-0.0881958
-0.0906372
-0.108948
-0.133362
-0.142517
-0.15686
-0.168762
-0.189819
-0.2005
-0.184326
-0.157776
-0.125427
-0.0906372
-0.0158691
0.0732422
0.161133
0.240479
0.227356
0.0958252
-0.0686646
-0.236511
-0.365906
-0.358582
-0.244446
-0.100708
0.0289917
0.0796509
0.0189209
0.0143433
-0.0335693
-0.0897217
-0.1297
-0.163879
-0.215454
-0.26001
-0.263367
-0.274658
-0.29541
-0.270996
-0.195923
-0.0653076
0.0231934
0.0546265
0.0518799
-0.00518799
-0.123901
-0.189819
-0.205078
-0.183716
-0.162659
-0.122375
-0.112305
-0.116882
-0.128174
-0.179749
-0.224304
-0.238647
-0.212097
-0.158691
-0.0610352
0.0189209
0.0582886
0.108032
0.127258
0.0970459
0.0549316
-0.0216675
-0.0967407
-0.141907
-0.143433
-0.100708
-0.00335693
0.0424194
0.0598145
0.0314331
0.0296021
0.0332642
0.0494385
0.138245
0.226746
0.243225
0.101013
0.0216675
-0.072937
-0.167542
-0.215454
-0.186157
-0.162964
-0.179749
-0.221863
-0.230713
-0.149841
-0.0332642
0.0106812
0.0402832
0.0775146
0.0570679
0.00366211
0.0656128
0.14801
0.083313
-0.0274658
-0.116882
-0.196228
-0.274658
-0.327759
-0.317383
-0.230408
-0.0827026
0.0415039
0.0909424
0.0564575
0.00823975
-0.0360107
-0.0741577
-0.125122
-0.172424
-0.195007
-0.187988
-0.169983
-0.131531
-0.105286
-0.0796509
-0.0393677
0
0.00518799
0.038147
0.0469971
0.0280762
0.00579834
-0.0509644
-0.157776
-0.224915
-0.162659
-0.0735474
0.00152588
0.0570679
0.0967407
0.0949097
0.0735474
0.0167847
0.10437
0.224304
0.296631
0.33783
0.301208
0.145569
-0.0585938
-0.163269
-0.198364
-0.255127
-0.309143
-0.263977
-0.213928
-0.258484
-0.279541
-0.250549
-0.195007
-0.148315
-0.00274658
0.0845337
0.0848389
0.0463867
0.0189209
0.00762939
-0.0216675
-0.0924683
-0.187988
-0.141296
-0.0119019
0.141907
0.296631
0.423889
0.426636
0.242615
0.0845337
-0.0485229
-0.117493
-0.134888
-0.140991
-0.0952148
-0.0119019
0.0149536
-0.0100708
-0.0708008
-0.159912
-0.189209
-0.188904
-0.193481
-0.202942
-0.187988
-0.1474
-0.0665283
-0.0250244
-0.0231934
-0.0189209
0.0180054
0.0411987
-0.00732422
-0.0732422
-0.124207
-0.134583
-0.06073
0.102234
0.284424
0.430603
0.479431
0.454407
0.274353
0.0100708
-0.159912
-0.180664
-0.160522
-0.176392
-0.140686
-0.110779
-0.108643
-0.0820923
-0.038147
-0.0567627
-0.0296021
0.0326538
0.0588989
0.111389
0.227661
0.329285
0.333557
0.295105
0.214539
0.138245
0.110474
0.0778198
0.0192261
-0.0558472
-0.104675
-0.114746
-0.0894165
-0.0485229
-0.0369263
-0.119019
-0.138855
-0.0775146
-0.121765
-0.185852
-0.196228
-0.169983
-0.105591
-0.0109863
0.102539
0.228577
0.289001
0.282288
0.263062
0.180664
0.0537109
-0.0131226
-0.0177002
-0.0296021
-0.00335693
0
-0.0201416
0
0.0717163
0.137634
0.196533
0.235291
0.203552
0.121155
0.0985718
0.0112915
-0.136108
-0.193176
-0.177612
-0.115662
-0.0747681
-0.0558472
-0.0570679
-0.0634766
-0.0756836
-0.0717163
-0.0784302
-0.140381
-0.182495
-0.226135
-0.198975
-0.0863647
0.0506592
0.149231
0.21637
0.295105
0.350342
0.304565
0.140991
0.0537109
0.0192261
0.0241089
0.0302124
0.0317383
0.00762939
-0.0463867
-0.0842285
-0.124817
-0.132446
-0.124207
-0.122986
-0.0698853
0.0256348
0.1297
0.183716
0.223389
0.283508
0.33783
0.313416
0.189514
0.0256348
-0.152588
-0.240479
-0.238037
-0.231323
-0.260925
-0.293884
-0.329895
-0.307617
-0.14801
-0.0445557
0.00518799
0.0152588
0.0100708
0.0271606
0.0366211
0.0424194
0.0344849
0.027771
-0.0292969
-0.0912476
-0.1297
-0.125732
-0.149841
-0.141296
-0.0817871
0.0228882
0.178528
0.357361
0.455627
0.380859
0.214233
0.102234
0.0369263
-0.109558
-0.245361
-0.318298
-0.252991
-0.12146
-0.0820923
-0.0839233
-0.0305176
0.0390625
0.0704956
0.0793457
0.108337
0.114136
0.0692749
-0.00549316
-0.0259399
-0.0100708
-0.0140381
-0.00183105
0.00854492
0.032959
0.101929
0.175476
0.201416
0.155945
0.0939941
0.0189209
-0.027771
-0.0299072
-0.0308228
0.0134277
0.055542
0.0823975
0.0582886
-0.00213623
-0.0552368
-0.0637817
0.0384521
0.0857544
0.083313
0.0802612
0.0598145
0.0479126
0.0540161
0.0653076
0.0930786
0.120544
0.13855
0.181885
0.194397
0.272522
0.35553
0.411987
0.415649
0.369873
0.266724
0.103149
-0.141907
-0.221252
-0.129395
-0.0302124
0.0238037
0.0970459
0.19043
0.194092
0.196533
0.186462
0.136108
0.0790405
0.0430298
0.0512695
0.0582886
0.0613403
0.0665283
0.0958252
0.115967
0.141296
0.147705
0.165405
0.167542
0.178223
0.178528
0.157471
0.101013
0.0616455
0.0674438
0.0967407
0.102539
0.119019
0.148315
0.160828
0.204163
0.294189
0.409241
0.4776
0.487061
0.429077
0.319519
0.0845337
-0.071106
-0.0656128
-0.050354
-0.0140381
0.0949097
0.146179
0.132751
0.093689
0.10437
0.137634
0.180359
0.112305
-0.0189209
-0.0393677
0.0119019
0.0784302
0.0946045
0.145569
0.224915
0.254517
0.173645
0.0100708
-0.062561
0.000610352
0.0387573
0.000915527
-0.0186157
-0.0338745
-0.045166
-0.0604248
-0.0637817
-0.0509644
-0.0430298
-0.0424194
-0.06073
-0.072937
-0.0537109
-0.00518799
0.00640869
0.0222778
0.0643921
0.0671387
-0.0460815
-0.130615
-0.129395
-0.120239
-0.0564575
0.015564
0.0405884
0.0506592
0.0692749
0.0863647
0.093689
0.0793457
0.0506592
-0.0189209
-0.0863647
-0.113831
-0.121765
-0.10437
-0.0390625
0.0662231
0.155945
0.193787
0.189209
0.171509
0.0817871
-0.0201416
-0.0653076
-0.0738525
-0.0601196
-0.022583
0.0738525
0.175476
0.230713
0.246887
0.305176
0.435486
0.557861
0.609131
0.517578
0.373535
0.186462
-0.0845337
-0.283813
-0.342102
-0.304565
-0.20813
-0.195923
-0.191956
-0.150452
-0.0900269
-0.0497437
-0.0448608
-0.115967
-0.202332
-0.235901
-0.244446
-0.283508
-0.2771
-0.180054
-0.101624
-0.0271606
0.0814819
0.126648
0.071106
-0.0402832
-0.147705
-0.141296
-0.13092
-0.118713
-0.0491333
0.12207
0.227051
0.256042
0.229797
0.190125
0.168152
0.241699
0.280457
0.307922
0.368958
0.311584
0.195923
0.0466919
-0.0958252
-0.0726318
0.0100708
0.0439453
-0.00152588
-0.0967407
-0.162659
-0.126648
-0.0256348
0.0793457
0.180359
0.19989
0.119629
-0.0198364
-0.112
-0.128479
-0.12085
-0.093689
-0.0753784
-0.055542
-0.0387573
-0.0210571
-0.00854492
-0.020752
-0.0228882
-0.0244141
-0.0506592
-0.0787354
-0.0927734
-0.10437
-0.0881958
-0.0531006
-0.0558472
-0.0476074
0.038147
0.118408
0.178528
0.241699
0.25238
0.194702
0.0808716
0.00640869
-0.0506592
-0.0646973
-0.0241089
0.00244141
-0.0198364
-0.0650024
-0.0894165
-0.111084
-0.209656
-0.294495
-0.324402
-0.265198
-0.184021
-0.0982666
0.162048
0.499878
0.611572
0.493164
0.310059
0.0875854
-0.0869751
-0.15564
-0.14801
-0.0579834
0.0396729
0.0805664
0.0964355
0.146179
0.0949097
-0.0195312
-0.0653076
-0.119629
-0.290222
-0.427856
-0.367432
-0.292053
-0.214844
-0.1297
-0.0897217
-0.0524902
-0.0402832
-0.0601196
-0.0714111
-0.0543213
-0.0268555
-0.0198364
-0.0695801
-0.153198
-0.186462
-0.18219
-0.117493
-0.0552368
-0.0186157
0.0241089
0.0253296
-0.0491333
-0.151367
-0.143433
-0.155334
-0.170898
-0.177002
-0.168457
-0.164185
-0.137939
-0.118408
-0.136108
-0.145569
-0.0994873
-0.03479
0
-0.00518799
-0.055542
-0.0924683
-0.109558
-0.0820923
-0.0372314
-0.0158691
0.00366211
0.0338745
0.067749
0.0640869
0.022583
-0.0170898
-0.0549316
-0.0750732
-0.0775146
-0.0405884
0.03479
0.101013
0.135803
0.137634
0.146179
0.121765
0.0839233
0.0744629
0.0665283
0.0915527
0.175171
0.243225
0.210876
0.093689
0.0088501
0.0256348
0.0582886
0.0656128
0.0610352
-0.00701904
-0.0616455
-0.0411987
-0.0326538
-0.0457764
-0.050354
0.00946045
0.133667
0.278625
0.34668
0.215759
-0.0289917
-0.283813
-0.383911
-0.441589
-0.413513
-0.283508
-0.1651
-0.0393677
0.0997925
0.169373
0.212097
0.197449
0.149231
0.122986
0.143738
0.145874
0.0930786
0.0012207
-0.112305
-0.220032
-0.261536
-0.204163
-0.122375
-0.0485229
0.00579834
0.043335
0.0985718
0.12207
0.0570679
0.0283813
0.0180054
0.0100708
0.015564
-0.00152588
0.00793457
0.00854492
0.0280762
0.00823975
-0.0408936
-0.0924683
-0.154419
-0.199585
-0.175171
-0.104065
-0.0485229
0.000610352
-0.00427246
0.00152588
0.0134277
0.0314331
0.0585938
0.106201
0.128174
0.143433
0.166931
0.184937
0.192566
0.166626
0.128174
0.0939941
0.0421143
0.00946045
-0.00396729
-0.0198364
-0.0552368
-0.0161743
0.0430298
0.118713
0.154419
0.144348
0.126953
0.108643
0.0262451
-0.0482178
-0.072937
-0.0820923
-0.00762939
0.160828
0.263367
0.283203
0.241699
0.0558472
-0.178833
-0.295105
-0.264893
-0.208435
-0.157471
-0.0845337
0.0158691
0.078125
0.0958252
0.0604248
-0.0183105
-0.104675
-0.123291
-0.116272
-0.111389
-0.0378418
-0.0247192
0.03479
0.0619507
0.0717163
0.0805664
0.0494385
0.050354
0.0317383
-0.00640869
-0.0793457
-0.164185
-0.245972
-0.312195
-0.345764
-0.324707
-0.238037
-0.101013
-0.0112915
0.0167847
0.0457764
0.0509644
0.038147
0.0292969
0.0405884
0.0509644
0.0408936
-0.0247192
-0.0857544
-0.103149
-0.133057
-0.159912
-0.109863
-0.0119019
0.100098
0.227356
0.370789
0.455627
0.430908
0.307007
0.169678
0.0131226
-0.09552
-0.11261
-0.1474
-0.195007
-0.207825
-0.206909
-0.1651
-0.098877
-0.039978
0.0189209
0.0415039
0.0692749
0.0802612
0.0863647
0.0738525
-0.00701904
-0.072937
-0.11261
-0.0769043
0.0482178
0.188904
0.276489
0.327759
0.30426
0.265503
0.210266
0.117493
0.038147
-0.00274658
-0.148315
-0.204468
-0.176392
-0.178528
-0.174866
-0.141602
-0.0357056
0.0714111
0.163574
0.211182
0.179749
0.0900269
-0.0494385
-0.129089
-0.139771
-0.115051
-0.116577
-0.0976562
-0.0576782
-0.0402832
-0.00396729
0.0253296
0.0726318
0.0869751
0.0671387
0.0341797
-0.00854492
-0.0469971
-0.0289917
-0.0506592
-0.0552368
-0.0357056
-0.0314331
-0.0662231
-0.0866699
-0.0576782
-0.0100708
0.0378418
0.105286
0.1474
0.135803
0.0610352
0.043335
0.0418091
0.0827026
0.132751
0.169067
0.205383
0.265503
0.198059
0.138245
0.0857544
-0.0112915
-0.100708
-0.110168
-0.0167847
0.0985718
0.184631
0.222168
0.206604
0.0360107
-0.238953
-0.428467
-0.378418
-0.224304
-0.0900269
0.0311279
0.09552
0.0775146
0.109253
0.140076
0.151367
0.143433
0.12085
0.050354
-0.0323486
-0.0524902
-0.0540161
-0.0509644
-0.015564
0.0140381
0.0698853
0.0860596
0.0732422
0.00732422
-0.104065
-0.140076
-0.0802612
0.0466919
0.0784302
0.0891113
0.0769043
0.0393677
-0.0112915
-0.00701904
0.0302124
0.0878906
0.176697
0.284424
0.303955
0.239258
0.180054
0.098877
0.0515747
-0.0814819
-0.128479
-0.0964355
-0.0588989
-0.0610352
-0.111389
-0.0997925
-0.0775146
-0.0482178
-0.0405884
-0.0405884
-0.0418091
0.000305176
0.0497437
0.107117
0.0997925
0.0570679
0.0567627
0.0418091
0.00946045
-0.00396729
0.055542
0.0793457
0.022583
0.0213623
0.149536
0.294189
0.345764
0.315857
0.247192
0.0961304
-0.0769043
-0.181274
-0.0744629
0.0167847
0.00427246
-0.0213623
-0.0848389
-0.18219
-0.269775
-0.331421
-0.330505
-0.281372
-0.205383
-0.140686
-0.0576782
0.0436401
0.0817871
0.0991821
0.083313
0.0546265
0.0100708
0.0012207
-0.015564
-0.0262451
-0.00579834
-0.0408936
-0.0308228
0.0109863
0.062561
0.0799561
0.0933838
0.0271606
-0.0256348
-0.0338745
-0.0363159
-0.0695801
-0.0900269
-0.0836182
-0.0576782
-0.0201416
0.0177002
0.0393677
0.055542
0.0738525
0.0482178
-0.00946045
-0.0424194
-0.0198364
-0.0152588
0.00915527
-0.00640869
0.00854492
0.0183105
0.027771
0.0680542
0.0473022
-0.022583
-0.104065
-0.159607
-0.123596
-0.0531006
0.0442505
0.0650024
0.127563
0.20874
0.26123
0.328674
0.408936
0.412903
0.21698
0.0793457
0.0512695
-0.00396729
-0.0332642
0.0177002
0.0442505
0.0546265
0.0808716
0.126343
0.109558
0.0631714
-0.0222778
0.00274658
0.0283813
-0.0268555
-0.0512695
0.0418091
0.136414
0.242004
0.280457
0.111389
-0.138855
-0.198059
-0.218506
-0.258484
-0.247498
-0.202942
-0.132751
-0.0119019
0.0762939
0.0299072
0.0222778
0.0289917
0.0875854
0.202332
0.27832
0.222473
0.136414
0.0271606
-0.126953
-0.243225
-0.267639
-0.239868
-0.152283
0.00579834
0.144043
0.188904
0.18158
0.143127
0.0808716
0.0131226
-0.0714111
-0.15564
-0.172119
-0.172119
-0.124207
-0.114441
-0.088501
-0.0372314
-0.0134277
-0.00457764
-0.015564
-0.0143433
-0.0457764
-0.110168
-0.17395
-0.21759
-0.180359
-0.123291
-0.020752
0.14679
0.172729
0.13092
0.0765991
0.0622559
0.0613403
0.0350952
0.0189209
0.0326538
0.0967407
0.157166
0.154724
0.108948
0.0692749
0.0497437
-0.0210571
-0.0646973
-0.0579834
-0.0527954
-0.0421143
-0.0424194
-0.0689697
-0.0744629
-0.0393677
-0.0161743
0.0112915
0.0369263
0.0631714
0.0726318
0.0427246
0.0350952
0.0637817
0.0991821
0.137024
0.165405
0.134583
0.0698853
0.0234985
-0.0552368
-0.104675
-0.0506592
-0.0234985
0.0354004
0.153503
0.238647
0.342407
0.386047
0.323181
0.205078
0.0817871
0.0308228
0.0161743
-0.0387573
-0.0283813
0.000305176
0.0283813
0.0112915
0.0128174
0.0146484
-0.0485229
-0.177612
-0.249939
-0.178528
-0.0805664
-0.00335693
0.0637817
0.0973511
0.0375366
-0.0268555
-0.123291
-0.222778
-0.383911
-0.250549
-0.103149
-0.0152588
0.00366211
0.00488281
0.0314331
0.0924683
0.093689
0.0759888
0.10437
0.115967
0.0881958
0.0561523
0.0109863
-0.0466919
-0.111389
-0.138855
-0.16571
-0.175476
-0.100708
-0.00701904
0.0656128
0.0888062
0.017395
-0.0720215
-0.149231
-0.155334
-0.112
-0.0857544
-0.0604248
-0.0387573
-0.0158691
-0.00213623
0.00335693
0.0332642
0.055542
0.0708008
0.055542
0.0442505
0.0405884
0.0558472
0.0357056
0.00762939
0.000915527
0.00183105
-0.0109863
-0.0436401
-0.0759888
-0.093689
-0.093689
-0.0488281
0.0610352
0.186462
0.31189
0.428467
0.513611
0.53894
0.461731
0.238342
-0.00457764
-0.13092
-0.195618
-0.270081
-0.307922
-0.25238
-0.209045
-0.201111
-0.169678
-0.106812
-0.0491333
-0.0357056
-0.012207
0.0695801
0.191345
0.291138
0.358582
0.33783
0.213013
0.00183105
-0.196838
-0.395508
-0.505371
-0.521545
-0.440369
-0.303955
-0.170288
-0.093689
-0.0308228
0.0424194
0.118408
0.113525
0.0567627
-0.00854492
-0.050354
-0.113525
-0.102539
-0.00854492
0.0790405
0.175476
0.2005
0.123596
0.0320435
-0.00274658
-0.0311279
-0.062561
-0.0744629
-0.057373
-0.0253296
0.00732422
-0.00213623
-0.00976562
-0.00549316
0
-0.0131226
-0.0112915
0.0558472
0.0921631
0.0485229
0.0143433
-0.0402832
-0.137024
-0.181274
