0.175476
0.246582
0.322571
0.338745
0.314331
0.179138
-0.00823975
-0.0769043
-0.062561
-0.0198364
-0.0198364
-0.0778198
-0.152283
-0.230408
-0.255737
-0.218506
-0.124512
-0.0146484
0.0720215
0.071106
0.0665283
0.0500488
0.0546265
0.0765991
0.0918579
0.0674438
0.0408936
0.0192261
0.062561
0.0756836
0.0842285
0.10498
0.158691
0.133667
0.00823975
-0.108948
-0.170898
-0.170288
-0.126038
-0.0698853
-0.0744629
-0.0894165
-0.0582886
-0.0250244
-0.0137329
0
0.038147
0.020752
-0.0820923
-0.171204
-0.159302
-0.121155
-0.0292969
0.0805664
0.0750732
-0.0125122
-0.0808716
-0.0949097
-0.0765991
-0.0466919
-0.0436401
-0.0460815
-0.0497437
-0.0500488
-0.0689697
-0.0650024
-0.0738525
-0.0650024
-0.0436401
-0.0244141
-0.0234985
-0.0244141
-0.0424194
-0.039978
-0.0088501
0.0314331
0.0881958
0.109253
0.111084
0.0793457
0.0354004
-0.038147
-0.0863647
-0.0671387
-0.0582886
-0.101929
-0.150452
-0.16571
-0.153809
-0.128479
-0.0552368
0.0305176
0.0387573
0.015564
-0.00488281
-0.0186157
-0.0241089
-0.0234985
-0.0167847
-0.0180054
-0.0088501
0.000610352
-0.00915527
-0.0271606
-0.0231934
-0.0180054
0.00183105
0.0216675
0.0314331
0.0106812
0.00549316
0.0128174
0.0198364
0.0512695
0.0970459
0.16449
0.209961
0.198059
0.178528
0.167847
0.106506
0.145264
0.256042
0.28656
0.278015
0.328369
0.325928
0.281677
0.213623
0.108948
0.0012207
-0.163269
-0.237122
-0.174866
-0.0878906
-0.0396729
0.00946045
0.0125122
-0.032959
-0.122986
-0.267944
-0.365295
-0.310364
-0.171204
-0.109558
-0.0811768
-0.0723267
-0.0787354
-0.0665283
-0.057373
-0.0561523
-0.0436401
-0.038147
-0.022583
-0.0112915
-0.0161743
-0.0213623
-0.0292969
-0.0323486
-0.0344849
-0.0128174
-0.00762939
0.00610352
0.0131226
0.00823975
0.0253296
0.00335693
-0.0335693
-0.0143433
0.0296021
0.0814819
0.106201
0.105896
0.0708008
0.00701904
-0.0540161
-0.0665283
-0.0473022
-0.0436401
-0.0656128
-0.0619507
-0.0442505
-0.0415039
0.00946045
0.0924683
0.194092
0.177917
0.0579834
-0.0344849
-0.0653076
-0.0753784
-0.0311279
0.0442505
0.0793457
0.0796509
0.0750732
0.0308228
-0.0106812
-0.022583
-0.050354
-0.0674438
-0.0787354
-0.0579834
-0.0656128
-0.0469971
-0.0460815
-0.0460815
-0.0341797
-0.0231934
-0.0100708
0.0134277
0.00732422
0.0323486
0.0579834
0.127563
0.174866
0.209961
0.196533
0.136414
0.102234
0.109558
0.122375
0.117188
0.109253
0.0689697
-0.0326538
-0.121155
-0.141907
-0.139465
-0.121765
-0.0787354
-0.0112915
0.0177002
0.012207
0.0256348
0.0262451
0.0311279
-0.0305176
-0.0860596
-0.0778198
-0.062561
-0.0610352
-0.0723267
-0.071106
-0.102234
-0.101929
-0.0280762
0.0692749
0.116882
0.110779
0.0198364
-0.0823975
-0.190735
-0.222168
-0.162048
-0.0204468
0.106812
0.0860596
0.017395
0.0158691
0.0445557
0.0900269
0.238953
0.293579
0.110168
-0.0280762
-0.0894165
-0.0942993
-0.0732422
-0.0588989
-0.0567627
-0.0463867
-0.0415039
-0.0274658
-0.00244141
0.0180054
0.0341797
0.0537109
0.0668335
0.050354
-0.00488281
-0.0509644
-0.0531006
-0.0366211
-0.0372314
-0.0253296
-0.0183105
-0.015564
-0.00396729
0
0.0262451
0.0570679
0.0802612
0.116577
0.152588
0.184326
0.185852
0.157471
0.0622559
-0.0845337
-0.159302
-0.223694
-0.237122
-0.172424
-0.111084
-0.0646973
0.0143433
0.0558472
0.0619507
0.0561523
0.0369263
0.0012207
-0.0445557
-0.0436401
-0.0509644
0.00823975
0.103149
0.145264
0.114441
0.0894165
0.0918579
0.0848389
0.0457764
-0.0115967
-0.0534058
-0.0546265
-0.0567627
-0.0662231
-0.0479126
0.0296021
0.0720215
0.0119019
-0.0784302
-0.135498
-0.101929
-0.057373
-0.0601196
-0.0668335
-0.0463867
-0.00305176
0.0360107
0.0735474
0.0976562
0.132446
0.191956
0.215759
0.129395
0.0643921
0.0524902
0.0344849
-0.00244141
-0.00244141
0.0354004
0.0204468
-0.0769043
-0.116577
-0.134888
-0.147095
-0.16449
-0.141602
-0.109558
-0.085144
-0.0543213
-0.0305176
-0.0143433
0.0314331
0.0701904
0.0735474
0.0582886
0.0125122
-0.0506592
-0.113525
-0.124817
-0.126343
-0.0646973
0.0192261
0.0125122
0.0384521
0.11322
0.235596
0.261536
0.196838
0.0775146
-0.0393677
-0.121155
-0.107727
-0.0671387
-0.0357056
-0.022583
0.0204468
0.0469971
0.0320435
-0.00518799
-0.0488281
-0.0234985
0.0241089
0.0427246
0.0402832
0.0531006
0.0564575
0.0448608
0.0421143
0.083313
0.158386
0.224609
0.214844
0.146179
0.0592041
0.00213623
-0.039978
-0.072937
-0.0991821
-0.0888062
-0.1297
-0.138245
-0.0888062
-0.00457764
0.0701904
0.107117
0.140381
0.180054
0.192261
0.131531
0.0387573
-0.0299072
-0.0811768
-0.0952148
-0.0665283
-0.0201416
-0.0164795
-0.0762939
-0.0842285
-0.09552
-0.0964355
-0.0631714
-0.0244141
-0.0442505
-0.0646973
-0.0747681
-0.0802612
-0.119934
-0.120544
-0.0686646
-0.0323486
-0.0231934
-0.0357056
-0.0604248
-0.0762939
-0.0778198
-0.0680542
-0.0616455
-0.062561
-0.113525
-0.121155
-0.0991821
-0.0567627
0.0112915
0.12207
0.178833
0.187988
0.202026
0.222778
0.172729
0.133667
0.201721
0.301514
0.28656
0.222778
0.169373
0.102844
0.0204468
-0.0717163
-0.115967
-0.0817871
-0.151978
-0.231323
-0.299072
-0.347595
-0.331116
-0.238342
-0.0784302
0.0415039
0.0897217
0.163574
0.174561
0.154419
0.127258
0.0787354
0.00457764
-0.0836182
-0.101013
-0.0695801
-0.0125122
0.0686646
0.157471
0.208435
0.217285
0.200195
0.0982666
-0.0512695
-0.137024
-0.121765
-0.0723267
-0.0494385
-0.0515747
-0.0442505
-0.0384521
-0.0183105
-0.0411987
-0.0558472
-0.0390625
-0.0314331
-0.0341797
-0.0161743
0.0445557
0.101318
0.119019
0.118713
0.0939941
0.027771
-0.0637817
-0.098877
-0.114441
-0.114441
-0.112
-0.107117
-0.0845337
-0.0802612
-0.0540161
-0.00640869
-0.0177002
-0.0192261
-0.0109863
0.00915527
0.0442505
0.0793457
0.116882
0.19104
0.241089
0.25238
0.270691
0.254517
0.180359
0.0430298
-0.0765991
-0.151367
-0.186768
-0.184631
-0.135803
-0.0637817
-0.0338745
-0.057373
-0.0320435
0.0201416
-0.0286865
-0.0637817
-0.0500488
-0.0564575
-0.0335693
-0.0308228
-0.0479126
-0.105591
-0.132446
-0.128174
-0.0878906
-0.0564575
-0.072937
-0.0564575
-0.0286865
0.00335693
0.00915527
0.0259399
0.0180054
-0.012207
-0.0283813
-0.0012207
0.0619507
0.139465
0.162048
0.158997
0.111084
0.0204468
-0.062561
-0.0646973
-0.0396729
0
0.0265503
0.00427246
-0.0152588
-0.0369263
-0.0402832
-0.0357056
-0.0186157
0.00183105
0.0204468
0.00946045
-0.0244141
-0.0616455
-0.0430298
-0.032959
-0.0357056
0.00457764
0.0350952
0.0622559
0.0543213
0.0311279
0.0158691
-0.0088501
-0.0167847
-0.00823975
0.0152588
0.0180054
0.017395
-0.00244141
-0.0119019
-0.0106812
-0.0128174
-0.0219727
-0.0244141
-0.00793457
-0.00701904
-0.0100708
-0.00305176
0.00518799
0.0204468
0.0335693
0.0286865
0.0180054
0.0183105
0.0357056
0.0778198
0.101624
0.123291
0.105591
0.0866699
0.038147
0.0137329
0.00946045
0.0390625
0.0875854
0.133972
0.140686
0.166016
0.177917
0.117188
0.0524902
0.050354
0.0415039
-0.0228882
0.0109863
0.13855
0.206604
0.17395
0.117493
0.00946045
-0.0857544
-0.17334
-0.254517
-0.233765
-0.145264
-0.0485229
0.000915527
0.0732422
0.0869751
0.0531006
-0.0314331
-0.055542
-0.0506592
-0.0292969
-0.0244141
-0.0341797
-0.0289917
-0.0796509
-0.13092
-0.154114
-0.130005
-0.0830078
-0.0439453
0.00946045
0.0192261
0.0231934
0.00335693
-0.010376
-0.0137329
-0.0012207
0.0125122
0.00274658
0.00213623
-0.0198364
-0.0378418
-0.038147
-0.0305176
-0.00793457
0.0265503
0.0302124
0.0341797
0.0152588
-0.00549316
-0.039978
-0.0518799
-0.0256348
0.0238037
0.0540161
0.0582886
0.0582886
0.0442505
0.0427246
0.0265503
0.00213623
0.0131226
0.0378418
0.0445557
0.0418091
0.0598145
0.0643921
0.0442505
0.0753784
0.128174
0.176697
0.222778
0.248718
0.248413
0.172729
0.0595093
-0.0265503
-0.038147
0.0222778
0.0817871
0.0509644
-0.0201416
-0.0866699
-0.0784302
-0.0546265
-0.0259399
0.0488281
0.0897217
0.0695801
-0.0546265
-0.174561
-0.21759
-0.228577
-0.170288
-0.0738525
0.0341797
0.108948
0.145264
0.146179
0.152588
0.144958
0.115356
0.0631714
0.00946045
-0.0924683
-0.18158
-0.208435
-0.213013
-0.205383
-0.151672
-0.0784302
-0.0186157
0.0604248
0.0952148
0.117493
0.115356
0.0875854
0.0619507
0.0244141
0.017395
-0.00610352
0.0234985
0.0604248
0.078125
0.0552368
-0.00762939
-0.0662231
-0.0799561
-0.065918
-0.0512695
-0.0793457
-0.101624
-0.0772095
-0.0216675
0.0598145
0.173035
0.210571
0.170593
0.114441
0.0714111
0.0515747
0.00213623
0.0271606
0.0857544
0.116882
0.0888062
0.00152588
-0.0662231
-0.0714111
-0.107727
-0.102539
-0.0128174
0.0839233
0.136414
0.137939
0.0924683
-0.0106812
-0.165405
-0.276489
-0.278625
-0.15686
0.0537109
0.204163
0.241089
0.311279
0.333557
0.267334
0.140076
0.0012207
-0.113831
-0.150757
-0.090332
-0.0192261
0.0357056
0.0268555
0.00671387
-0.038147
-0.0900269
-0.17395
-0.205383
-0.173035
-0.124512
-0.0497437
0.0283813
0.0509644
0.0338745
0.00366211
-0.0296021
-0.100403
-0.188904
-0.246277
-0.240784
-0.170593
-0.0408936
0.127563
0.252075
0.291443
0.257568
0.195007
0.090332
0.0524902
0.171814
0.308838
0.332642
0.292053
0.175171
0.0167847
-0.118103
-0.164795
-0.0967407
-0.0784302
-0.102539
-0.148315
-0.19165
-0.199585
-0.145569
-0.0430298
0.0219727
0.0613403
0.0778198
0.0790405
0.0790405
0.062561
0.0369263
-0.0183105
-0.0338745
0.0125122
0.0335693
0.027771
-0.062561
-0.14679
-0.187988
-0.224915
-0.155945
0.043335
0.220947
0.263672
0.229187
0.12085
0.055542
0.0302124
0.0531006
0.1474
0.246887
0.328064
0.324097
0.284729
0.19104
-0.00823975
-0.115967
-0.0897217
0.0234985
0.0979614
0.0997925
0.03479
-0.0863647
-0.186462
-0.209656
-0.269775
-0.265503
-0.237732
-0.214233
-0.227356
-0.232849
-0.22644
-0.20874
-0.160828
-0.0616455
0.0134277
0.06073
0.0866699
0.0872803
0.0366211
-0.0280762
-0.0576782
-0.0674438
-0.0793457
-0.126038
-0.166321
-0.220337
-0.203247
-0.100708
0.0189209
0.146484
0.157471
0.0369263
-0.093689
-0.183411
-0.213013
-0.196228
-0.0698853
0.0787354
0.117188
0.0909424
0.135193
0.176697
0.12085
0.0735474
0.0802612
0.0619507
0.00915527
0.0332642
0.0704956
0.050354
0.0421143
0.0473022
0.0570679
0.0534058
0.00793457
-0.0128174
-0.032959
-0.0320435
-0.0253296
-0.0296021
-0.0204468
-0.0238037
-0.0164795
-0.0274658
-0.0100708
0.0177002
-0.0119019
0.0152588
0.0411987
0.0811768
0.111389
0.129395
0.134888
0.126038
0.0286865
-0.0485229
-0.0765991
-0.0576782
-0.0115967
0.017395
0.0662231
0.118408
0.190735
0.231018
0.219116
0.09552
-0.039978
-0.177002
-0.250549
-0.296631
-0.254211
-0.167542
-0.110474
-0.0924683
-0.0402832
0.0259399
0.152588
0.235596
0.255432
0.231323
0.169067
0.117798
0.0830078
0.0463867
0.0134277
0.0750732
0.122375
0.176697
0.227966
0.23407
0.240173
0.138245
-0.0115967
-0.151672
-0.220947
-0.212402
-0.188293
-0.179443
-0.172424
-0.118408
-0.0497437
-0.0183105
-0.038147
-0.0384521
-0.0314331
-0.0372314
-0.0299072
-0.0363159
-0.0289917
-0.0335693
-0.0128174
-0.00244141
0.0265503
0.0598145
0.0616455
0.0521851
0.0509644
0.0296021
-0.0234985
-0.0552368
-0.0613403
-0.0473022
-0.0405884
-0.0408936
-0.0427246
-0.0588989
-0.0448608
-0.00762939
-0.0146484
0.00579834
0.00915527
0.0115967
0.012207
-0.00671387
0.00274658
0.0723267
0.144958
0.202942
0.197754
0.214539
0.153809
0.117798
0.115967
0.137939
0.142517
0.140381
0.130615
0.0775146
-0.0283813
-0.102539
-0.161133
-0.202942
-0.197144
-0.115662
-0.0088501
0.0695801
0.146179
0.189209
0.124207
-0.0549316
-0.256958
-0.327454
-0.368652
-0.285645
0
0.153503
0.177917
0.176392
0.116882
-0.0158691
-0.10376
-0.124207
-0.0857544
-0.03479
0.000915527
0.0323486
0.0570679
0.0579834
0.0216675
-0.00701904
-0.0405884
-0.0482178
-0.0515747
-0.0524902
-0.0674438
-0.0741577
-0.0671387
-0.0732422
-0.0247192
-0.03479
0.00396729
0.0250244
0.010376
-0.00762939
-0.0088501
0.00518799
0
-0.00396729
-0.0143433
-0.0186157
-0.0216675
-0.0112915
0.00640869
0.0109863
0.00579834
0.0216675
0.0234985
0.0259399
0.0189209
0.0262451
0.0125122
0.0119019
0.0137329
0.0314331
0.0305176
0.0238037
0.0137329
0.00762939
0.0109863
0.0308228
0.0231934
0.0292969
0.0302124
0.0253296
0.0189209
-0.00305176
-0.0146484
0.00854492
0.0845337
0.20752
0.265503
0.321655
0.397034
0.39032
0.297546
0.186768
0.157471
0.103455
-0.0320435
-0.166321
-0.197144
-0.184021
-0.162659
-0.1297
-0.12146
-0.127258
-0.126648
-0.127869
-0.093689
-0.0387573
-0.0198364
-0.0292969
-0.0540161
-0.0939941
-0.14679
-0.179749
-0.138245
-0.0970459
-0.0564575
0.0125122
0.050354
0.057373
0.045166
0.0613403
0.0680542
0.0747681
0.0265503
-0.0338745
-0.0524902
-0.0686646
-0.0314331
-0.0457764
-0.0460815
-0.0561523
-0.0512695
-0.0448608
-0.0476074
-0.050354
-0.0344849
-0.0543213
-0.102234
-0.116882
-0.0949097
-0.0698853
-0.0302124
0.00762939
0.0161743
0.00701904
0.0167847
0.0228882
0.0228882
0.0177002
0.000305176
-0.0125122
-0.0521851
-0.0921631
-0.103455
-0.117798
-0.0469971
0.00823975
0.0314331
0.0418091
0.0271606
-0.0357056
-0.0753784
-0.0537109
0.0180054
0.113525
0.189514
0.19989
0.160522
0.0598145
-0.0714111
-0.138855
-0.101013
-0.0241089
0.0753784
0.13916
0.0601196
-0.0415039
-0.121765
-0.121765
-0.111389
-0.00946045
0.146179
0.2005
0.187988
0.177612
0.141296
0.0598145
-0.0308228
-0.043335
-0.0662231
-0.0680542
-0.0564575
-0.0128174
0.0299072
0.0720215
0.0427246
-0.0704956
-0.129395
-0.0915527
-0.0332642
0.0100708
0.0518799
0.0860596
0.138245
0.167236
0.112
0.00610352
-0.0991821
-0.180664
-0.176086
-0.120544
-0.00854492
0.0918579
0.137634
0.141602
0.0857544
0.00366211
-0.0820923
-0.126038
-0.151978
-0.116882
-0.0491333
-0.0100708
-0.00640869
-0.0274658
-0.0405884
-0.00152588
0.015564
0.0231934
0.0491333
0.0753784
0.107422
0.0860596
0.0192261
-0.0152588
-0.039978
-0.045166
-0.0299072
-0.0241089
-0.0592041
-0.0238037
-0.0180054
-0.0296021
-0.0228882
0.0387573
0.0738525
0.0534058
0.057373
0.0970459
0.197754
0.283203
0.250244
0.190125
0.0985718
0.0286865
0.038147
0.0592041
0.0320435
0.00549316
-0.03479
-0.135498
-0.21759
-0.245056
-0.198364
-0.158997
-0.093689
-0.032959
-0.0164795
-0.0323486
-0.0646973
-0.0292969
0
0.0363159
0.015564
-0.0320435
-0.0772095
-0.0933838
-0.0952148
-0.0460815
0.00579834
0.0546265
0.0622559
-0.0134277
-0.0466919
-0.027771
-0.045166
-0.0491333
-0.0189209
-0.00671387
-0.0280762
-0.0393677
-0.0363159
-0.0128174
0.0369263
0.0912476
0.13031
0.159912
0.173645
0.175476
0.15686
0.107117
0.0582886
0.0253296
0.0289917
0.00823975
-0.0469971
-0.0326538
0.0183105
0.0683594
0.0689697
0.0863647
0.085144
0.118408
0.164795
0.171814
0.141602
0.124512
0.0869751
0.0427246
-0.020752
-0.0979614
-0.178833
-0.209961
-0.209045
-0.178223
-0.126038
-0.0634766
-0.017395
0.015564
0.00946045
-0.0210571
0.0222778
0.0445557
0.0680542
0.0369263
0.0222778
0.0134277
0.000305176
-0.00152588
0.0149536
0.0518799
0.0653076
0.0640869
0.0363159
0.0402832
-0.0012207
-0.0161743
0.0457764
0.153503
0.226746
0.248718
0.223694
0.175476
0.273132
0.179749
-0.032959
-0.190735
-0.228271
-0.224304
-0.195923
-0.166626
-0.134583
-0.0912476
-0.0756836
-0.0808716
-0.0888062
-0.0744629
-0.0671387
-0.0613403
-0.0552368
-0.0549316
-0.0357056
0.0115967
0.0274658
0.0430298
0.0616455
0.0662231
0.0759888
0.0799561
0.0796509
0.0646973
0.0189209
-0.0445557
-0.0695801
-0.0753784
-0.0701904
-0.0784302
-0.0759888
-0.0753784
-0.0784302
-0.0778198
-0.0326538
0.0259399
0.0363159
0.0387573
0.0790405
0.133972
0.153809
0.151672
0.174561
0.139465
0.0384521
-0.0439453
-0.0137329
0.0442505
0.0802612
0.0424194
0.0253296
0.00640869
-0.00610352
0.00213623
0.00946045
0.0250244
0.0296021
-0.0161743
-0.0180054
-0.0088501
0.0143433
0.0531006
0.119019
0.148621
0.115356
0.0366211
-0.0518799
-0.0842285
-0.090332
-0.0952148
-0.126038
-0.168762
-0.143433
-0.0949097
-0.0671387
-0.0534058
0.0231934
0.105286
0.151367
0.220642
0.310974
0.365295
0.328979
0.22644
0.153503
0.0619507
-0.0350952
-0.0820923
-0.0576782
0.0643921
0.201416
0.218201
0.0985718
-0.0900269
-0.187683
-0.222473
-0.185852
-0.14801
-0.121155
-0.072937
0.0180054
0.115356
0.0683594
-0.0714111
-0.14801
-0.0762939
0.0219727
0.043335
0.0167847
-0.0112915
0.0256348
0.0497437
0.078125
0.057373
0.0390625
0.0161743
-0.00854492
-0.0161743
-0.0357056
-0.027771
0.000305176
0.0192261
0.000305176
-0.017395
-0.0231934
-0.0454712
-0.0537109
-0.0161743
0.0210571
0.0830078
0.162659
0.193176
0.19104
0.136108
0.0411987
0.0115967
-0.015564
-0.0860596
-0.0900269
-0.141907
-0.170898
-0.137024
-0.0854492
-0.0476074
0.0317383
0.133667
0.189209
0.0869751
-0.0186157
-0.0344849
-0.0473022
-0.0668335
-0.03479
0.0296021
0.00701904
-0.0286865
-0.0311279
0.00366211
0.122681
0.306396
0.469666
0.52948
0.47821
0.307312
0.0424194
-0.192261
-0.283508
-0.31189
-0.290222
-0.2005
-0.113831
-0.0445557
-0.0631714
-0.161743
-0.213623
-0.184326
-0.148621
-0.0714111
0.108032
0.217896
0.28595
0.333557
0.375061
0.365295
0.278625
0.112915
0.0283813
-0.0305176
-0.0881958
-0.149231
-0.13031
-0.100403
-0.109558
-0.0656128
-0.0302124
-0.00335693
0.0317383
0.0378418
-0.0170898
-0.0888062
-0.152588
-0.183411
-0.14801
-0.0622559
-0.00244141
-0.0088501
-0.055542
-0.0866699
-0.0802612
-0.0634766
-0.0363159
0.03479
0.0436401
0.00823975
0.0158691
0.0143433
0.0640869
0.0927734
0.0985718
0.167236
0.263977
0.257568
0.0653076
-0.105591
-0.149536
-0.14801
-0.163269
-0.144348
-0.0485229
-0.00793457
-0.0137329
0.00640869
0.0354004
0.0427246
0.0430298
0.0567627
0.0527954
0.0137329
0.0283813
0.0576782
0.0588989
0.0262451
-0.0292969
-0.0717163
-0.110779
-0.119934
-0.113831
-0.0802612
-0.0378418
-0.00488281
0.000915527
0.017395
0.00732422
-0.0253296
-0.0598145
-0.0686646
-0.0692749
-0.0466919
-0.0320435
-0.027771
-0.0167847
-0.0228882
-0.0320435
-0.020752
0.0204468
0.0735474
0.107117
0.153198
0.180054
0.135803
0.0506592
0.00396729
-0.0146484
-0.0317383
-0.0497437
-0.0332642
-0.065918
-0.129089
-0.158081
-0.139465
-0.102539
-0.0296021
0.0656128
0.107727
0.133057
0.172424
0.159912
0.115051
0.0378418
0.0378418
0.0531006
0.0546265
0.062561
0.0442505
0.0921631
0.169067
0.161133
0.0900269
0.020752
-0.0415039
-0.0830078
-0.0820923
-0.0949097
-0.137939
-0.0970459
-0.0219727
-0.00274658
0.00549316
0.0387573
0.0494385
-0.0112915
-0.0906372
-0.0643921
0.0354004
0.153198
0.291748
0.386353
0.405579
0.355225
0.227966
0.0750732
-0.022583
-0.0271606
-0.0283813
-0.0909424
-0.180054
-0.206299
-0.186768
-0.144043
-0.107117
-0.0970459
-0.10498
-0.0778198
-0.0466919
-0.039978
-0.065918
-0.0997925
-0.142212
-0.135498
-0.0613403
0.0149536
0.103455
0.149231
0.10376
0.03479
-0.00213623
-0.0689697
-0.126648
-0.144043
-0.0860596
-0.0460815
-0.072937
-0.0894165
-0.0717163
-0.0439453
-0.0421143
-0.0595093
-0.0570679
-0.0460815
-0.0411987
-0.072937
-0.0695801
-0.065918
-0.0469971
-0.0479126
-0.0332642
-0.017395
-0.00762939
-0.0189209
-0.0143433
0.00854492
0.0646973
0.108948
0.153503
0.201416
0.198364
0.131531
0.038147
-0.0112915
-0.0650024
-0.119629
-0.169067
-0.192566
-0.168152
-0.140991
-0.0869751
-0.0344849
0.000305176
0.00457764
0.020752
0.0564575
0.093689
0.132446
0.125732
0.0637817
0.0442505
0.0216675
-0.00976562
-0.00518799
-0.017395
-0.0195312
-0.0213623
-0.0292969
-0.0201416
-0.00335693
-0.0198364
-0.0436401
-0.0842285
-0.135498
-0.205078
-0.176086
-0.0909424
-0.0680542
-0.0970459
-0.09552
-0.0650024
0.00183105
0.0741577
0.0973511
0.0552368
0.0357056
0.038147
0.0415039
0.055542
0.112
0.159302
0.148315
0.0900269
0.0592041
0.0253296
-0.0640869
-0.13855
-0.160217
-0.12207
-0.038147
0.0344849
0.078125
0.0744629
0.0631714
0.0320435
0.0106812
0.0292969
0.0506592
0.0680542
0.0860596
0.0811768
0.0506592
0.0411987
0.0439453
0.0469971
0.0363159
0.00396729
-0.0357056
-0.100403
-0.158997
-0.141296
-0.110168
-0.101624
-0.10376
-0.10498
-0.101013
-0.114746
-0.0805664
-0.00335693
0.0497437
0.0558472
0.0430298
0.0143433
-0.0149536
-0.0405884
-0.0567627
-0.0387573
0.0476074
0.136414
0.171814
0.12146
-0.0375366
-0.19928
-0.263977
-0.215149
-0.173035
-0.120544
-0.115662
-0.196838
-0.256042
-0.185852
-0.0628662
0.0134277
0.0933838
0.117188
0.128479
0.126953
0.177612
0.191956
0.1651
0.155945
0.115967
0.115356
0.126343
0.0900269
0.0262451
-0.0662231
-0.108948
-0.0967407
-0.0466919
0.0149536
0.0787354
0.101318
0.0799561
0.0274658
-0.0170898
-0.0619507
-0.103149
-0.102844
-0.0872803
-0.0610352
-0.0292969
0.000305176
0.0424194
0.0906372
0.158386
0.193176
0.129089
0.0271606
-0.0384521
-0.0830078
-0.137329
-0.1474
-0.0769043
-0.0115967
0.0222778
0.0292969
0.0402832
0.015564
0.0265503
0.00335693
-0.0286865
-0.0894165
-0.142822
-0.138855
-0.0875854
-0.0396729
0.0271606
0.0820923
0.137634
0.198364
0.245667
0.228882
0.205994
0.195618
0.10437
-0.0808716
-0.145569
-0.109253
-0.0714111
-0.0314331
0.0244141
0.0790405
0.158081
0.135498
0.126343
0.112
0.10437
0.0888062
0.0234985
-0.0436401
-0.0643921
-0.0680542
-0.137024
-0.147705
-0.0372314
0.117493
0.186157
0.169067
0.133362
0.0894165
0.0161743
-0.0738525
-0.119324
-0.0634766
0.017395
0.078125
0.127258
0.131226
0.118713
0.0787354
0.0292969
-0.0143433
-0.0634766
-0.0997925
-0.123291
-0.176392
-0.172729
-0.15625
-0.164795
-0.183411
-0.187683
-0.185852
-0.157166
-0.0924683
-0.0408936
-0.0714111
-0.0570679
-0.00244141
0.0949097
0.177917
0.195923
0.144043
0.0967407
0.0286865
-0.0131226
-0.0494385
-0.0402832
0.0265503
0.0430298
0.0570679
0.0396729
0.0106812
-0.0335693
-0.0683594
-0.0375366
0.0384521
0.0982666
0.144958
0.175476
0.202026
0.131531
-0.0137329
-0.125122
-0.127563
-0.12085
-0.0949097
-0.0820923
-0.0488281
-0.0326538
-0.050354
-0.0405884
-0.0491333
-0.0976562
-0.148621
-0.103455
0.00518799
0.0976562
0.187683
0.159302
0.0991821
0.0839233
0.0631714
0.0201416
-0.0363159
-0.0616455
-0.0567627
-0.0271606
0.045166
0.132751
0.216064
0.241394
0.126343
-0.0579834
-0.181885
-0.22522
-0.194092
-0.102539
0.027771
0.0241089
-0.0830078
-0.0549316
0.0473022
0.188904
0.262146
0.325928
0.351257
0.260315
0.130615
0.0549316
0.045166
0.0585938
0.142517
0.152893
0.113831
0.0198364
-0.0387573
-0.0128174
-0.0247192
-0.108032
-0.205994
-0.24231
-0.201111
-0.132446
-0.0726318
-0.0247192
0.0201416
0.0143433
0.0128174
-0.0143433
-0.0241089
-0.032959
-0.0415039
-0.0656128
-0.0708008
-0.0640869
-0.0790405
-0.0756836
-0.0662231
-0.0372314
-0.0164795
0.0109863
0.0360107
0.0762939
0.0891113
0.111084
0.0869751
-0.00183105
-0.10376
-0.133362
-0.1474
-0.152588
-0.131836
-0.106201
-0.0732422
0.00396729
0.0695801
0.0631714
0.0189209
-0.00671387
-0.0280762
-0.0271606
0.0137329
0.0521851
0.0665283
0.0668335
0.0918579
0.0997925
0.0723267
0.0469971
0.0610352
0.067749
0.0674438
0
-0.111389
-0.184326
-0.149841
-0.0436401
0.0845337
0.21637
0.264587
0.26825
0.25177
0.219421
0.170593
0.124817
0.205078
0.225525
0.174255
0.13031
0.0949097
0.0360107
-0.0857544
-0.0857544
-0.00152588
0.00518799
0.071106
0.107727
0.0561523
-0.0778198
-0.192566
-0.198669
-0.0860596
0.0106812
0.0604248
0.0128174
-0.098877
-0.210266
-0.158386
-0.125122
-0.100708
-0.106812
-0.0863647
-0.0820923
-0.0897217
-0.104065
-0.0982666
-0.085144
-0.0390625
-0.0363159
-0.0698853
-0.116577
-0.143433
-0.162354
-0.185242
-0.135803
0.0167847
0.164185
0.253601
0.281677
0.335388
0.368042
0.308533
0.169983
0.0946045
0.0561523
-0.00762939
-0.0909424
-0.0875854
0.0164795
0.130615
0.169373
0.109253
-0.0411987
-0.207214
-0.25116
-0.215759
-0.113525
-0.0161743
-0.0741577
-0.126038
-0.173035
-0.157776
-0.0820923
0.101624
0.232239
0.280762
0.220642
0.128784
-0.00946045
-0.188904
-0.252686
-0.204773
-0.106812
0.0234985
0.0872803
0.0350952
-0.0466919
-0.038147
0.00823975
0.0546265
0.272217
0.386047
0.324097
0.133362
0.000915527
-0.0845337
-0.154114
-0.22583
-0.248413
-0.24231
-0.236206
-0.237122
-0.184631
-0.0869751
-0.0106812
0.032959
0.071106
0.0930786
0.125427
0.0460815
-0.00915527
-0.0238037
-0.00579834
0.020752
0.0534058
0.083313
0.0628662
0.0775146
0.0613403
0.0387573
0.0115967
-0.027771
-0.0350952
0.0210571
0.115967
0.172424
0.182495
0.171509
0.145874
0.100098
0.0402832
0.0314331
0.0500488
0.0521851
0.0579834
0.071106
0.0750732
0.0482178
-0.050354
-0.125122
-0.106812
-0.0460815
0.050354
0.13031
0.105896
0.10376
0.100403
0.0332642
-0.0402832
-0.0634766
-0.0521851
-0.141602
-0.170593
-0.169678
-0.149841
-0.114441
-0.0518799
-0.0195312
0.0158691
0.0210571
0.0228882
0.0622559
0.105896
0.146484
0.194397
0.195923
0.0869751
-0.0280762
-0.112305
-0.218506
-0.28595
-0.26001
-0.157166
-0.0549316
0.0119019
0.00335693
-0.032959
-0.0128174
0.0326538
0.0558472
0.0253296
-0.0485229
-0.062561
-0.0646973
-0.0570679
-0.0393677
0.022583
0.0756836
0.111084
0.107422
0.0839233
0.015564
-0.0527954
-0.0436401
-0.0152588
0
-0.00701904
-0.0366211
-0.0762939
-0.0289917
0.0775146
0.167847
0.236206
0.297546
0.260925
0.13031
0.039978
0.0164795
0.0369263
0.0131226
-0.0222778
-0.0686646
-0.0912476
-0.121765
-0.0827026
0.00335693
0.0424194
0.0515747
-0.0564575
-0.203247
-0.231628
-0.202332
-0.155945
-0.15686
-0.118103
-0.0592041
-0.022583
0.0299072
0.09552
0.154419
0.128174
0.0402832
0.0131226
0.00518799
-0.0320435
-0.0741577
-0.0985718
-0.071106
-0.0302124
0.0341797
0.0549316
0.0430298
0.0344849
0.00610352
-0.00518799
0.0167847
-0.00549316
-0.0314331
-0.00427246
0.0125122
0.00152588
0.032959
0.0662231
0.0692749
0.0408936
0.0256348
-0.00335693
-0.0210571
0.00610352
0.032959
0.0149536
-0.00274658
-0.0088501
0.0259399
0.0341797
0.0415039
0.0259399
0.0125122
-0.0558472
-0.115356
-0.122986
-0.050354
0.00579834
0.0610352
0.118408
0.157166
0.240173
0.249939
0.184937
0.0567627
-0.0363159
-0.0924683
-0.0686646
-0.0466919
0.00366211
0.067749
0.162048
0.184937
0.129089
0.134888
0.230713
0.224304
0.171204
0.12207
0.151978
0.0634766
-0.0283813
-0.0653076
-0.102234
-0.131226
-0.116272
-0.111694
-0.170593
-0.270081
-0.250244
-0.210876
-0.138245
-0.0241089
0.0204468
0.0463867
0.015564
-0.0338745
-0.045166
-0.0421143
-0.0616455
-0.0390625
0.0561523
0.129089
0.133972
0.0863647
-0.0418091
-0.131531
-0.13092
-0.09552
-0.0802612
-0.0299072
0.00946045
0.0622559
0.0704956
0.0894165
0.093689
0.0524902
-0.0210571
-0.100403
-0.107117
-0.0646973
-0.0570679
-0.0164795
-0.0210571
-0.0213623
-0.0357056
-0.0296021
-0.017395
-0.00946045
0.032959
0.0564575
0.0506592
0.0497437
0.0601196
0.06073
0.050354
0.032959
0.0506592
0.0634766
0.0759888
0.0973511
0.113831
0.0274658
-0.0964355
-0.147095
-0.102844
0.0210571
0.193787
0.262146
0.258484
0.253296
0.21698
0.165405
0.0997925
0.0228882
-0.0827026
-0.192566
-0.271301
-0.316467
-0.292053
-0.239258
-0.150452
-0.0354004
0.0604248
0.17395
0.199585
0.157776
0.151367
0.170898
0.151672
0.179138
0.220642
0.22522
0.140076
0.206299
0.256348
0.129089
-0.0723267
-0.159302
-0.116577
-0.0411987
0.0241089
0.0582886
0.0534058
-0.0808716
-0.265808
-0.351868
-0.318604
-0.201416
-0.0549316
0.0305176
0.0784302
0.0924683
0.0802612
0.0408936
0.0177002
0.0344849
-0.050354
-0.136108
-0.169373
-0.160828
-0.129395
-0.078125
-0.00946045
0.0140381
0.0265503
0.0183105
-0.012207
-0.0613403
-0.0924683
-0.0930786
-0.0878906
-0.0393677
0.0598145
0.0939941
0.0894165
0.0497437
0.0280762
0.0558472
0.185242
0.275269
0.189819
0.0576782
-0.0286865
-0.131836
-0.181274
-0.0866699
0.100403
0.198975
0.292969
0.307312
0.239563
0.130615
-0.055542
-0.229492
-0.266724
-0.195923
-0.107117
-0.0546265
-0.0280762
-0.0216675
-0.0576782
-0.090332
-0.110474
-0.0637817
-0.0436401
-0.0460815
-0.0653076
-0.100098
-0.139771
-0.230408
-0.191956
-0.10376
-0.0463867
-0.0311279
-0.0369263
-0.0491333
-0.038147
-0.0177002
0.0704956
0.108948
0.0854492
0.0967407
0.133972
0.119324
0.088501
0.154419
0.18158
0.111389
-0.00762939
-0.135498
-0.205688
-0.116882
-0.0344849
-0.0149536
-0.039978
-0.0842285
-0.125122
-0.18219
-0.125122
-0.0494385
0.0350952
0.0491333
-0.0100708
-0.0439453
-0.0860596
-0.0949097
-0.0436401
0.0357056
0.126038
0.183716
0.123291
-0.020752
-0.112305
-0.164795
-0.131531
-0.0692749
0.00152588
0.0640869
0.0897217
0.0793457
0.039978
0.0491333
0.126038
0.193176
0.177917
0.151367
0.114136
0.0805664
0.0100708
-0.0604248
-0.0915527
-0.109558
-0.114746
-0.0918579
-0.0442505
-0.0439453
-0.050354
-0.0274658
0.0253296
0.0473022
0.0146484
0.0283813
0.0482178
0.0491333
0.0671387
0.13855
0.172729
0.12146
0.0271606
-0.0646973
-0.14801
-0.185242
-0.0564575
0.071106
0.0970459
0.0839233
0.142517
0.0976562
-0.0119019
-0.0161743
-0.0430298
-0.093689
-0.15564
-0.181885
-0.121155
-0.015564
0.0747681
0.1297
0.118713
0.0946045
0.0808716
0.0753784
0.0933838
0.142212
0.137939
0.0192261
-0.0881958
-0.136108
-0.110474
-0.0576782
-0.0201416
-0.0186157
0.00946045
0.062561
0.06073
0.0344849
0.0323486
0.0146484
-0.017395
-0.0491333
-0.0558472
-0.0473022
-0.039978
-0.0665283
-0.105286
-0.0979614
-0.0537109
0.00946045
0.135193
0.238342
0.266113
0.272217
0.248413
0.239868
0.263367
0.279846
0.22644
0.106506
-0.0234985
-0.100403
-0.167542
-0.195923
-0.163574
-0.104675
-0.0180054
0.0408936
0.0973511
0.113525
0.0750732
-0.0271606
-0.166931
-0.201721
-0.150757
-0.043335
-0.0241089
-0.0106812
0.0360107
0.106506
0.168762
0.189209
0.145874
0.0241089
-0.0332642
-0.0534058
-0.0827026
-0.0628662
-0.0415039
-0.0146484
-0.00549316
-0.0164795
-0.0167847
-0.0497437
-0.0756836
-0.0350952
0.00640869
0.0421143
0.0427246
0.0262451
0.0460815
0.071106
0.0558472
0.0485229
0.0442505
0.0643921
0.071106
0.11261
0.128479
0.11322
0.0363159
-0.0234985
-0.0241089
0.000305176
0.0558472
0.136414
0.162964
0.140991
0.128174
0.0994873
0.0796509
0.0390625
0.00366211
-0.00366211
-0.0140381
-0.00854492
0
0.0253296
0.0476074
0.0299072
0.0234985
-0.0115967
-0.043335
-0.0616455
-0.0265503
0.0335693
0.10437
0.155945
0.162659
0.071106
0.0241089
0.043335
0.11261
0.258179
0.401917
0.491638
0.470581
0.360413
0.161743
-0.113831
-0.254211
-0.205688
-0.131226
-0.12085
-0.104065
-0.0778198
-0.0759888
-0.0668335
-0.0692749
-0.0747681
-0.0738525
-0.0674438
-0.057373
-0.0521851
-0.0466919
-0.0213623
-0.0369263
-0.050354
-0.125122
-0.120239
-0.126648
-0.123291
-0.0820923
-0.065918
-0.0686646
-0.0683594
0.0354004
0.147705
0.224304
0.269165
0.306396
0.324402
0.26886
0.0863647
-0.0598145
-0.0512695
0.00427246
0.0350952
0.0427246
0.00579834
-0.0320435
-0.0393677
-0.0305176
-0.0418091
-0.0442505
-0.0439453
-0.0390625
-0.0286865
-0.0244141
-0.015564
-0.00366211
-0.0253296
-0.0274658
-0.00305176
0.039978
0.0973511
0.152283
0.251465
0.290527
0.270691
0.170288
0.0482178
-0.0491333
-0.0268555
-0.0552368
-0.103455
-0.120239
-0.0811768
-0.0259399
0.0149536
0.0131226
-0.0387573
-0.122986
-0.133057
-0.106506
-0.0747681
-0.0686646
-0.0427246
0.00610352
0.0408936
0.0109863
-0.0366211
-0.0527954
-0.0408936
-0.00213623
0.0180054
0.0247192
0.0357056
0.0350952
0.0186157
-0.00152588
-0.0247192
-0.0198364
0.0177002
0.0610352
0.108643
0.0650024
0.0387573
0.0253296
0.0189209
-0.0491333
-0.0686646
-0.00488281
0.0204468
0.000915527
-0.0189209
-0.0354004
-0.0408936
-0.0488281
-0.0912476
-0.131836
-0.14801
-0.149841
-0.140686
-0.109863
-0.0646973
-0.0268555
-0.00640869
-0.0384521
-0.0445557
-0.0332642
-0.0292969
-0.0164795
-0.0357056
-0.0357056
-0.00427246
0.0177002
0.0656128
0.11322
0.0952148
0.0796509
0.0466919
-0.0271606
-0.139465
-0.144653
-0.0805664
0.00457764
0.0802612
0.138855
0.152283
0.0720215
0.010376
0.0430298
0.10437
0.0967407
0.057373
0.0634766
0.124817
0.149231
0.152588
0.0796509
-0.0628662
-0.163879
-0.248718
-0.259399
-0.220642
-0.143738
-0.0900269
-0.0802612
-0.0848389
-0.0958252
-0.0946045
-0.0402832
0.0741577
0.180664
0.240173
0.220642
0.132751
0.0424194
-0.0415039
-0.0646973
-0.0418091
-0.0411987
-0.0561523
-0.055542
-0.0848389
-0.111389
-0.0799561
0.03479
0.118103
0.145264
0.145569
0.153198
0.137024
0.0476074
-0.10376
-0.230103
-0.301819
-0.288086
-0.243835
-0.194702
-0.142822
-0.0717163
-0.03479
-0.0256348
-0.06073
-0.0442505
-0.0088501
0.00823975
0.0134277
0.0131226
0.0012207
0.0149536
0.0280762
-0.00762939
-0.0704956
-0.158691
-0.254211
-0.289612
-0.170593
0.0140381
0.0967407
0.119324
0.127869
0.119629
0.0997925
0.0924683
0.0759888
0.0521851
-0.00396729
-0.0341797
-0.0152588
0.0268555
0.0698853
0.12085
0.108337
0.065918
-0.0152588
-0.0485229
-0.0375366
0.00854492
0.055542
0.0997925
0.109253
0.173035
0.205383
0.119324
0.0521851
0.130005
0.140991
-0.0354004
-0.223083
-0.164795
-0.0613403
0.0466919
0.109558
0.137024
-0.00305176
-0.18158
-0.271912
-0.227051
-0.150757
-0.0930786
-0.043335
-0.0390625
-0.0769043
-0.0778198
-0.0271606
0.0537109
0.11261
0.142822
0.159607
0.109558
-0.0119019
-0.114746
-0.126648
-0.111389
-0.0735474
-0.0125122
0.0436401
0.103455
0.114746
0.0741577
0.137634
0.132446
0.0775146
-0.0668335
-0.183411
-0.322266
-0.407104
-0.361023
-0.215149
-0.0796509
0.00976562
0.0405884
0.0231934
0.0216675
0.0186157
-0.015564
0.00427246
0.0546265
0.0817871
0.0793457
0.0793457
0.0720215
0.055542
0.000610352
-0.0765991
-0.107727
-0.118713
-0.136108
-0.168152
-0.14679
-0.0787354
-0.0372314
0.00579834
0.136414
0.284729
0.302124
0.238037
0.167542
0.0326538
-0.119019
-0.263672
-0.320129
-0.347595
-0.332947
-0.222168
-0.0814819
0.0375366
0.213623
0.317993
0.291748
0.205688
0.133362
0.0497437
-0.0167847
0.00854492
0.0570679
0.0787354
0.0924683
0.0668335
0.0146484
-0.0366211
-0.0616455
-0.043335
-0.0463867
-0.00305176
0.0802612
0.121155
0.149536
0.11322
-0.0198364
-0.126038
-0.133057
-0.118713
-0.0701904
-0.0585938
-0.0814819
-0.093689
-0.101929
-0.0808716
-0.0341797
0.0106812
0.0714111
0.117798
0.201721
0.321045
0.427856
0.515747
0.547485
0.446777
0.251465
0.0622559
-0.0634766
-0.161743
-0.215454
-0.211487
-0.233765
-0.366211
-0.47821
-0.506897
-0.422974
-0.251465
-0.106506
-0.0332642
-0.0527954
-0.157471
-0.300903
-0.361023
-0.352783
-0.297852
-0.186157
0.0326538
0.246582
0.298157
0.298462
0.237732
0.195618
0.153809
0.0906372
0.0515747
0.0317383
-0.00305176
-0.0466919
-0.0500488
-0.0308228
0.0228882
0.0436401
0.0552368
0.0735474
0.111694
0.150146
0.191345
0.185547
0.14801
0.0946045
0.065918
-0.00762939
-0.067749
-0.0720215
-0.071106
-0.0811768
-0.0863647
-0.105286
-0.106812
-0.0909424
-0.0772095
-0.0320435
-0.00396729
0.0454712
0.0985718
0.150452
0.184021
0.128174
0.0112915
-0.0546265
-0.0881958
-0.0997925
-0.0402832
-0.00610352
0.0790405
0.163879
0.263062
0.327454
0.300903
0.136108
-0.149231
-0.32074
-0.288086
-0.151978
0.0128174
0.119934
0.226746
0.296021
0.262146
0.163879
0.0283813
-0.0689697
-0.106201
-0.0915527
-0.0411987
0.000610352
-0.00549316
-0.0622559
-0.154114
-0.204468
-0.210571
-0.232239
-0.26062
-0.312805
-0.354004
-0.319824
-0.250244
-0.195007
-0.183411
-0.184631
-0.198059
-0.185852
-0.0662231
0.12085
0.268555
0.319519
0.296936
0.257874
0.180359
0.158081
0.184631
0.187988
0.119019
0.0418091
0.0119019
0.0131226
0.0604248
0.12085
0.185852
0.263977
0.279236
0.213318
0.078125
-0.0878906
-0.159302
-0.147705
-0.137024
-0.133972
-0.107727
-0.12085
-0.112305
0.0106812
0.184937
0.273438
0.288086
0.16571
0.0201416
-0.0741577
-0.0863647
-0.043335
-0.00366211
-0.0100708
-0.0271606
-0.0289917
-0.0662231
-0.127258
-0.110779
-0.0863647
-0.0723267
-0.0695801
-0.0274658
0
0.0192261
0.00427246
-0.0170898
-0.0405884
-0.0650024
-0.0820923
-0.0265503
0
-0.00732422
-0.0274658
-0.0198364
0.0363159
0.0881958
0.119019
0.131531
0.113525
0.039978
-0.00488281
-0.0424194
-0.0869751
-0.0891113
-0.0796509
-0.0323486
0.0402832
0.0817871
0.0997925
0.125732
0.130615
0.0640869
-0.0479126
-0.0836182
-0.0473022
0.0292969
0.137939
0.214844
0.219727
0.14679
0.045166
-0.0332642
-0.0927734
-0.0732422
0.0158691
0.083313
0.151367
0.21698
0.260315
0.293884
0.306091
0.215454
0
-0.174866
-0.282898
-0.383606
-0.39978
-0.30426
-0.234375
-0.102539
0.0442505
0.0820923
0.0320435
-0.0387573
-0.055542
-0.0402832
-0.0363159
-0.0518799
-0.0921631
-0.117493
-0.142212
-0.14679
-0.144653
-0.154419
-0.114441
-0.0665283
0.00183105
0.0598145
0.0881958
0.0915527
0.0808716
0.0924683
0.101929
0.0820923
0.062561
0.0311279
-0.00793457
-0.0485229
-0.0595093
-0.0546265
-0.0631714
-0.0201416
0.071106
0.146179
0.227661
0.305481
0.396729
0.492249
0.4953
0.349121
0.0497437
-0.220947
-0.333557
-0.331421
-0.304565
-0.177002
-0.0540161
0.0158691
0.0158691
0.0088501
0.0164795
0.0897217
0.170593
0.218811
0.272217
0.31189
0.21759
0.0445557
-0.00823975
-0.0289917
-0.138245
-0.242004
-0.269775
-0.240173
-0.179138
-0.0183105
0.0790405
0.0860596
0.0750732
0.0848389
0.0170898
-0.0668335
-0.0698853
-0.0930786
-0.140686
-0.131836
-0.0665283
-0.0137329
0.0234985
0.0125122
-0.0314331
-0.107727
-0.196838
-0.212708
-0.162048
-0.100708
0.0131226
0.0845337
0.0842285
0.0598145
0.0506592
0.0265503
-0.015564
-0.0216675
0.00946045
0.0469971
0.0494385
0.0579834
0.0439453
0.0192261
0.000305176
0.0140381
0.0415039
0.0515747
0.0506592
0.0534058
0.0119019
-0.0115967
0.0131226
0.0653076
0.0598145
0.0448608
0.0204468
-0.00274658
-0.0222778
-0.0305176
0.0296021
0.114441
0.153503
0.151978
0.098877
0.0460815
0.0244141
-0.00335693
-0.055542
-0.0894165
-0.100403
-0.0546265
-0.0662231
-0.0891113
-0.130005
-0.166321
-0.166321
-0.125732
-0.090332
-0.0250244
-0.0143433
-0.0619507
-0.0241089
0.00793457
0.0335693
0.0967407
0.254822
0.375977
0.351868
0.259094
0.13916
0.0305176
-0.106506
-0.117798
-0.00793457
0.124817
0.221558
0.378113
0.505371
0.467224
0.433044
0.257874
0.0137329
-0.179749
-0.237732
-0.208435
-0.162964
-0.139465
-0.139465
-0.162354
-0.184631
-0.150757
-0.0576782
0.0241089
0.10498
0.154419
0.153503
0.0842285
-0.00854492
-0.123291
-0.196533
-0.203247
-0.201111
-0.223389
-0.246582
-0.256348
-0.234375
-0.154724
-0.0744629
-0.0247192
-0.0234985
-0.0280762
-0.022583
-0.0134277
-0.0131226
-0.0210571
-0.0344849
-0.0271606
-0.0271606
-0.0164795
-0.0012207
0.00213623
0.0167847
0.0378418
0.0506592
0.0506592
0.039978
0.0338745
0.0149536
-0.0265503
-0.0790405
-0.0927734
-0.067749
-0.0375366
-0.0149536
-0.00701904
0.0430298
0.0564575
-0.00671387
0.00732422
0.0497437
0.0619507
0.0741577
0.0875854
0.0720215
0.0570679
0.0424194
0.0231934
0.00427246
-0.00518799
-0.00305176
0.0192261
0.0476074
0.0674438
0.0708008
0.0622559
0.0524902
0.0531006
0.0476074
0.0354004
0.0424194
0.0579834
0.0784302
0.0875854
0.10498
0.0842285
0.0497437
0.0479126
0.0634766
0.108337
0.187073
0.301514
0.358276
0.311584
0.265808
0.236816
0.201111
0.236511
0.320129
0.32196
0.191956
0.0167847
-0.14679
-0.274353
-0.314941
-0.254517
-0.135803
-0.015564
0.0814819
0.103149
-0.0146484
-0.172119
-0.163879
-0.0408936
0.0146484
-0.0241089
-0.0744629
-0.114746
-0.141907
-0.193176
-0.251465
-0.294189
-0.298767
-0.248413
-0.17395
-0.0674438
0.0299072
0.00518799
-0.0537109
-0.0454712
0.0518799
0.126648
0.176086
0.197754
0.171204
0.0750732
-0.0512695
-0.162659
-0.232239
-0.216675
-0.170288
-0.0836182
0.020752
0.106812
0.157471
0.148315
0.139465
0.163879
0.179749
0.150452
0.108643
0.0997925
0.0979614
0.0958252
0.0286865
-0.0219727
0.00671387
-0.00610352
-0.0531006
-0.0326538
-0.00640869
0.0350952
0.0405884
-0.0244141
-0.120544
-0.170593
-0.132141
-0.114441
-0.0793457
-0.00579834
0.109253
0.244446
0.359192
0.395813
0.392456
0.296936
0.127258
-0.0912476
-0.219421
-0.225525
-0.1651
-0.14679
-0.166321
-0.209351
-0.233154
-0.25177
-0.180969
-0.0714111
-0.0100708
0.0466919
0.0811768
0.112
0.141296
0.172119
0.213928
0.238037
0.262146
0.261536
0.328064
0.349121
0.23468
0.0854492
-0.0302124
-0.128479
-0.213318
-0.195312
-0.160522
-0.0979614
-0.12146
-0.13916
-0.108337
-0.0296021
0.0253296
0.0570679
-0.0189209
-0.134888
-0.166321
-0.147095
-0.178223
-0.13031
0.0439453
0.205383
0.230103
0.200806
0.193176
0.2005
0.19104
0.212708
0.263977
0.236511
0.0445557
-0.185852
-0.293579
-0.26062
-0.220642
-0.144653
-0.00946045
0.13855
0.166626
0.111694
0.000915527
0.00396729
0.0201416
-0.0268555
-0.0765991
-0.0671387
-0.0671387
-0.115356
-0.149536
-0.0769043
0.0732422
0.240173
0.368958
0.409851
0.276489
0.0527954
-0.0558472
-0.0708008
-0.0970459
-0.155029
-0.174561
-0.184021
-0.183411
-0.150452
-0.098877
-0.0656128
-0.0909424
-0.122375
-0.19165
-0.19989
-0.163879
-0.0982666
-0.0448608
-0.00366211
0.00213623
-0.00640869
-0.0332642
-0.0698853
-0.0964355
-0.118713
-0.0964355
-0.071106
-0.0350952
0.0314331
0.0506592
0.0402832
0.0344849
0.00549316
-0.0161743
-0.0357056
-0.0146484
0.0848389
0.254211
0.353088
0.267029
0.144958
0.0250244
-0.102539
-0.10498
-0.0466919
0
-0.0439453
-0.126038
-0.137024
-0.100098
0.0326538
0.191345
0.275574
0.282288
0.180054
0.110779
0.0653076
0.0247192
-0.0158691
-0.107117
-0.164795
-0.106812
-0.0100708
0.0265503
0.0915527
0.0857544
0.0357056
0.0164795
0.0405884
0.0564575
0.0515747
0.0537109
0.0390625
0.0668335
0.0411987
-0.0769043
-0.181885
-0.204163
-0.1651
-0.0933838
-0.0454712
-0.0466919
-0.0204468
0.00213623
-0.0088501
-0.0308228
0.000915527
-0.0320435
-0.0827026
-0.0747681
-0.0216675
-0.00396729
-0.0540161
-0.0332642
0.0552368
0.131836
0.210876
0.219421
0.0723267
-0.00549316
-0.0491333
-0.0717163
-0.0778198
0
0.0344849
0.0408936
0.0500488
0.0234985
-0.0170898
-0.0268555
0.0326538
0.0857544
0.13031
0.177917
0.175476
0.115967
0.0302124
-0.0305176
-0.0665283
-0.0973511
-0.13092
-0.111389
-0.0714111
-0.0234985
-0.0296021
-0.0320435
-0.0314331
-0.0378418
-0.0796509
-0.101624
-0.102234
-0.0888062
-0.0967407
-0.0866699
-0.0305176
0.0134277
0.0378418
0.112915
0.248413
0.356445
0.43335
0.495605
0.487976
0.298157
0.0299072
-0.0906372
-0.169983
-0.187378
-0.155029
-0.135193
-0.108643
-0.0720215
-0.0448608
-0.015564
0.0140381
0.0100708
0.0231934
0.0271606
-0.0375366
-0.067749
-0.0100708
0.012207
-0.0112915
-0.00793457
-0.00305176
-0.0460815
-0.0543213
-0.0177002
-0.015564
-0.0338745
-0.0634766
-0.0582886
0.00946045
0.0537109
0.0549316
0.0558472
0.0546265
0.0466919
0.0726318
0.10437
0.0524902
-0.0726318
-0.14801
-0.188599
-0.108948
0.0802612
0.287476
0.405579
0.377808
0.219421
-0.0149536
-0.227661
-0.289612
-0.255432
-0.239868
-0.238342
-0.25116
-0.283203
-0.301208
-0.27771
-0.194397
-0.107727
0.0231934
0.0823975
0.0323486
-0.0106812
0.0515747
0.128784
0.115967
0.0869751
-0.00244141
-0.0430298
-0.0695801
-0.0631714
-0.0418091
-0.0418091
-0.0372314
-0.0131226
0.017395
0.0549316
0.0830078
0.0827026
0.0698853
0.0457764
0.0115967
-0.0253296
-0.0668335
-0.0534058
-0.032959
-0.0280762
0.0112915
0.0775146
0.145264
0.195618
0.201721
0.171814
0.0961304
0.0387573
0.0427246
0.0332642
0.0488281
0.115967
0.0823975
-0.0140381
-0.0268555
0.0497437
0.134277
0.112305
0.0769043
0.027771
-0.0314331
-0.0549316
-0.0747681
-0.0973511
-0.123291
-0.123596
-0.0646973
-0.0390625
0.00396729
0.0778198
0.145569
0.136414
0.0552368
0.0704956
0.112
0.071106
0.0393677
0.0576782
0.11261
0.0778198
0.0567627
0.0320435
-0.020752
-0.00457764
0.0180054
-0.00335693
-0.150452
-0.291748
-0.37323
-0.369263
-0.292053
-0.202026
0.000915527
0.151062
0.161438
0.172424
0.141296
0.0408936
-0.0784302
-0.158997
-0.159912
-0.10498
-0.0128174
0.071106
0.106201
0.13916
0.162964
0.132141
0.0421143
-0.0445557
-0.0393677
-0.0201416
-0.0567627
-0.118103
-0.0665283
-0.0100708
-0.0320435
-0.0796509
-0.102844
-0.112915
-0.0735474
-0.00396729
0.0869751
0.149231
0.150757
0.141602
0.0863647
0.0314331
0.0146484
-0.0177002
-0.071106
-0.0817871
-0.0579834
-0.00305176
0.0643921
0.130005
0.179443
0.163269
0.109253
0.0341797
-0.0177002
-0.0576782
-0.0894165
-0.117188
-0.0985718
-0.0674438
0.0183105
0.0750732
0.0881958
0.0775146
0.0637817
0.0610352
0.0521851
0.0543213
0.0393677
0.0720215
0.158081
0.18219
0.0772095
-0.0827026
-0.267639
-0.404053
-0.364075
-0.19165
0.0595093
0.173035
0.169983
0.122375
0.0946045
0.0500488
-0.0131226
-0.0262451
-0.0189209
-0.0259399
-0.0845337
-0.0314331
0.067749
0.151978
0.19043
0.185242
0.144043
0.145569
0.169067
0.215454
0.175171
0.0875854
-0.0671387
-0.111389
-0.0100708
0.0140381
-0.101318
-0.107727
0.107727
0.298767
0.404663
0.397339
0.284729
0.157166
-0.0320435
-0.219116
-0.255127
-0.166016
-0.14679
-0.156555
-0.226135
-0.3479
-0.392761
-0.273743
-0.0985718
0.0576782
0.212097
0.286255
0.226135
0.0509644
-0.233459
-0.305786
-0.232544
-0.0900269
-0.00915527
0.0384521
-0.0234985
-0.166016
-0.188599
-0.151367
-0.0704956
-0.0216675
0.0228882
0.055542
0.0732422
0.039978
-0.0601196
-0.113525
-0.110474
-0.0784302
-0.0521851
-0.0845337
-0.0793457
-0.071106
-0.0939941
-0.12146
-0.122375
-0.108948
-0.0588989
-0.0265503
0.0119019
0.00335693
-0.0088501
-0.0158691
-0.0259399
0.0311279
0.123291
0.266113
0.368042
0.430908
0.350647
0.193176
0.102234
-0.0222778
-0.125427
-0.161133
-0.209351
-0.210266
-0.151978
-0.0442505
0.0332642
0.06073
0.0527954
0.0683594
0.0512695
-0.0134277
-0.0973511
-0.137939
-0.138245
-0.0643921
0.00518799
0.0213623
0.039978
0.116577
0.126038
0.110474
0.131531
0.164185
0.177917
0.28656
0.299683
0.123901
-0.0332642
-0.176086
-0.298462
-0.331421
-0.317993
-0.282288
-0.242004
-0.141602
-0.0338745
0.0286865
0.0302124
0.0363159
0.0460815
0.00579834
-0.043335
-0.0753784
-0.0900269
-0.0314331
0.0219727
0.0140381
0.0241089
0.0527954
0.139465
0.198669
0.240479
0.229187
0.12146
0.0161743
-0.0421143
-0.0320435
-0.0448608
-0.107117
-0.0973511
-0.0558472
-0.0704956
-0.0949097
-0.102234
-0.102844
-0.0869751
-0.0830078
-0.0747681
-0.0622559
-0.0564575
-0.0518799
-0.0485229
-0.0402832
-0.0469971
-0.0854492
-0.0692749
-0.00976562
0.103149
0.240173
0.367432
0.355835
0.233154
0.0939941
-0.0192261
-0.0805664
-0.0421143
0.0518799
0.0991821
0.0482178
-0.00610352
-0.00183105
-0.0314331
-0.0515747
-0.0244141
0.0262451
0.00579834
-0.0274658
-0.022583
0.0213623
0.0827026
0.132751
0.137024
0.0302124
-0.114746
-0.196838
-0.174866
-0.148926
-0.151978
-0.0744629
-0.0289917
-0.038147
-0.0567627
-0.0750732
-0.072937
-0.0531006
0.000305176
0.0524902
0.131226
0.147705
0.0863647
-0.00457764
-0.0616455
-0.127258
-0.105896
-0.0146484
0.0650024
0.0769043
0.0344849
-0.0350952
-0.109558
-0.151367
-0.108948
-0.0296021
0.0665283
0.186768
0.255127
0.224304
0.126343
0.0241089
-0.0521851
-0.0869751
-0.0723267
-0.0515747
-0.0296021
-0.0314331
-0.0241089
-0.0372314
-0.0125122
0.0323486
0.107727
0.205994
0.249939
0.224609
0.145874
0.0515747
-0.115967
-0.17395
-0.151978
-0.132141
-0.14679
-0.138245
-0.110168
-0.0436401
0.0244141
0.0341797
0.0268555
0.0140381
0.00854492
-0.00640869
-0.0125122
-0.0088501
0.00427246
-0.00213623
-0.00823975
-0.00305176
-0.00518799
-0.00152588
0.0741577
0.220947
0.364685
0.479431
0.567932
0.529785
0.305481
0.00701904
-0.226135
-0.303955
-0.240173
-0.118713
-0.0439453
-0.0299072
-0.0311279
-0.0665283
-0.0430298
-0.00366211
-0.0100708
-0.0469971
-0.12085
-0.173035
-0.154419
-0.0869751
0.00793457
0.125427
0.154419
0.132751
0.0680542
-0.0323486
-0.0918579
-0.0686646
-0.0427246
-0.0265503
-0.0119019
-0.0497437
-0.107117
-0.154114
-0.121765
-0.0656128
-0.0234985
0.0628662
0.0863647
0.00579834
-0.0927734
-0.0848389
-0.0888062
-0.0686646
-0.0650024
-0.0686646
-0.00793457
0.00976562
-0.010376
-0.0234985
-0.0134277
0.000610352
-0.0195312
-0.00701904
-0.017395
-0.0128174
0.00213623
0.0354004
0.0387573
0.0402832
0.0656128
0.0549316
0.0973511
0.133667
0.138855
0.16449
0.211792
0.250244
0.266418
0.243835
0.183411
0.0289917
-0.131836
-0.234985
-0.272217
-0.169067
0.072937
0.339661
0.463562
0.4245
0.291443
0.135803
-0.0326538
-0.161438
-0.19165
-0.171509
-0.132751
-0.085144
-0.0396729
0.0326538
0.0418091
0.032959
0.0695801
0.122375
0.12146
0.0326538
-0.00183105
-0.0283813
-0.0933838
-0.155029
-0.115967
-0.106812
-0.0772095
0.0354004
0.111694
0.101318
0.0323486
-0.0415039
-0.119324
-0.152893
-0.0735474
0.0616455
0.0912476
0.0790405
0.062561
-0.0402832
-0.101318
-0.0802612
-0.0827026
-0.0933838
-0.0546265
0
0.0106812
0.0546265
0.0494385
0.0167847
-0.0662231
-0.102539
-0.0976562
-0.113831
-0.093689
-0.027771
0.0720215
0.116272
0.185852
0.133667
0.027771
-0.0592041
-0.100708
-0.188904
-0.229797
-0.19928
-0.101318
-0.0131226
0.0393677
0.0387573
-0.0012207
-0.0296021
0.0088501
0.125427
0.32196
0.464172
0.395508
0.200806
0.0320435
-0.0982666
-0.168457
-0.159607
-0.106201
0.00946045
0.137939
0.236206
0.275269
0.240173
0.166016
0.0534058
-0.0473022
-0.153198
-0.214233
-0.20813
-0.142517
-0.12085
-0.112305
-0.0839233
-0.0775146
-0.0323486
0.00335693
0.0540161
0.0701904
0.0939941
0.072937
0.0457764
-0.0299072
-0.0708008
-0.0723267
-0.0784302
-0.0588989
-0.0494385
-0.0631714
-0.0720215
-0.0683594
-0.0415039
-0.0384521
-0.043335
-0.0350952
-0.0308228
-0.0143433
-0.0134277
-0.0241089
-0.020752
-0.010376
0.0189209
0.027771
0.0363159
-0.00335693
-0.0540161
-0.0900269
-0.0866699
-0.0457764
-0.0256348
0.0375366
0.141602
0.219116
0.200195
0.15564
0.0485229
-0.0515747
-0.108948
-0.0643921
0.027771
0.102234
0.154419
0.15564
0.0738525
-0.0314331
-0.0613403
-0.0476074
-0.0473022
-0.0811768
-0.107727
-0.0994873
-0.109558
-0.0308228
0.0704956
0.0646973
-0.00793457
0.0564575
0.131531
0.21637
0.325012
0.464783
0.469055
0.233459
-0.166931
-0.31311
-0.267029
-0.20874
-0.144348
0.00823975
0.00488281
-0.0714111
-0.128174
-0.130615
-0.114746
-0.0436401
0.0787354
0.133667
0.108643
0.088501
0.119934
0.172119
0.202942
0.144958
-0.0106812
-0.133362
-0.183411
-0.179138
-0.126648
-0.0772095
-0.0231934
0.0134277
0.0152588
0.0134277
0.0460815
0.0665283
0.0201416
-0.0326538
-0.0531006
0.0112915
0.00793457
-0.0311279
0.067749
0.162659
0.184937
0.13855
0.0485229
-0.0631714
-0.124207
-0.133362
-0.112
-0.0662231
-0.10376
-0.149536
-0.155334
-0.143738
-0.108948
-0.0421143
0.0421143
0.0924683
0.115967
0.101318
0.0192261
-0.0222778
-0.0485229
-0.0335693
-0.0137329
0.0680542
0.0820923
0.0119019
-0.0186157
-0.0012207
0.0247192
0.0354004
0.136108
0.267639
0.273438
0.198059
0.107727
-0.0210571
-0.125122
-0.0796509
-0.00305176
0.045166
0.0772095
0.112305
0.150146
0.0927734
-0.00488281
-0.0802612
-0.149536
-0.217285
-0.272827
-0.252075
-0.19104
-0.119934
-0.0802612
-0.0466919
-0.0106812
0.0305176
0.0408936
0.0292969
0.0338745
0.0527954
0.0360107
-0.00244141
0.0463867
0.100403
0.143738
0.1297
0.135803
0.133057
0.10376
0.0537109
0.0177002
-0.0665283
-0.168152
-0.169983
-0.0323486
0.111694
0.19043
0.23407
0.230408
0.174255
0.128174
0.0717163
-0.0341797
-0.0848389
-0.0881958
-0.0552368
-0.0378418
-0.0183105
-0.0100708
0.017395
0.0134277
-0.0143433
-0.0192261
-0.0296021
-0.0445557
-0.0473022
-0.0357056
-0.0112915
-0.00366211
0.00610352
0.0106812
0.032959
0.0491333
0.0613403
0.105286
0.162354
0.163269
0.100403
0.0357056
-0.0213623
-0.0430298
-0.00518799
0.0714111
0.115662
0.148621
0.152588
0.015564
-0.213623
-0.236816
-0.0296021
0.137634
0.284119
0.327759
0.328369
0.196228
0.0540161
0.123596
0.239258
0.231018
0.090332
0.00366211
-0.115662
-0.211182
-0.227051
-0.232849
-0.281067
-0.353394
-0.379639
-0.296021
-0.214539
-0.189514
-0.143738
-0.0665283
0.0866699
0.139465
0.175171
0.162659
0.16571
0.118103
0.0827026
0.0665283
0.0387573
0.0140381
0.0296021
0.0817871
0.122375
0.151978
0.189514
0.160217
0.0964355
0.0308228
0.0302124
0.0686646
0.107117
0.139465
0.0341797
-0.159912
-0.289001
-0.382385
-0.427551
-0.341187
-0.2005
-0.149231
-0.0823975
0.000610352
0.0360107
0.012207
0.00518799
0.00427246
-0.0222778
-0.032959
-0.0234985
-0.0146484
0.0128174
0.0308228
0.0375366
0.0421143
0.0320435
0.00640869
-0.0408936
-0.0531006
-0.0494385
-0.0408936
-0.0473022
-0.0164795
-0.0134277
-0.032959
-0.00854492
0.0164795
0.0335693
0.0216675
0.0497437
0.0424194
0.0354004
0.0177002
0.0216675
0.0299072
0.0546265
0.0790405
0.0994873
0.13092
0.110779
0.0704956
0.0143433
-0.088501
-0.138855
-0.06073
0.0393677
0.0488281
-0.00427246
-0.0140381
-0.0314331
-0.0686646
-0.0875854
-0.0717163
-0.0747681
-0.0305176
0.093689
0.228577
0.233459
0.210571
0.217285
0.278625
0.281677
0.242615
0.164185
0.0473022
-0.0357056
-0.0912476
-0.139771
-0.12207
-0.0442505
0.0418091
0.0918579
0.162659
0.209961
0.192566
0.110474
-0.0244141
-0.129089
-0.148315
-0.117188
-0.0967407
-0.0787354
-0.0549316
-0.0524902
-0.119629
-0.195618
-0.237427
-0.19928
-0.0473022
0.146484
0.212097
0.201416
0.160522
0.115662
0.0823975
0.0723267
0.0305176
0.0375366
0.0811768
0.0616455
0.0537109
0.06073
0.0338745
-0.020752
0
0.062561
0.0537109
-0.0338745
-0.13855
-0.190735
-0.234985
-0.211487
-0.0802612
0.06073
0.0695801
0.0811768
0.0790405
0.0747681
0.0546265
0.0396729
-0.0421143
-0.117188
-0.129395
-0.113831
-0.0924683
-0.0723267
-0.0460815
0.0326538
0.0997925
0.136414
0.15686
0.152283
0.098877
-0.0119019
-0.112
-0.179749
-0.186157
-0.170593
-0.117188
-0.0518799
-0.00335693
0.0149536
0.0262451
0.0512695
0.100708
0.1474
0.155945
0.109863
0.0802612
0.00213623
-0.0640869
-0.0802612
-0.0228882
0.0436401
0.0967407
0.119629
0.0686646
-0.0210571
-0.0402832
0.108643
0.372314
0.533142
0.475464
0.233154
-0.102234
-0.411682
-0.473328
-0.250549
-0.0787354
-0.0631714
-0.104675
-0.13031
-0.123596
-0.110474
-0.105591
-0.118713
-0.137634
-0.117188
-0.1297
-0.108643
-0.0628662
0.020752
0.0692749
0.0509644
-0.0604248
-0.189209
-0.242004
-0.22583
-0.185852
-0.0445557
0.0253296
0.0372314
0.0485229
0.0979614
0.143127
0.133362
0.10376
0.0430298
-0.0158691
0.0317383
0.0524902
0.0357056
0.0268555
0.0204468
0
-0.0860596
-0.123901
-0.100403
-0.0756836
-0.0360107
0.017395
0.0253296
0.0415039
0.0796509
0.090332
0.0582886
0.0485229
0.00457764
-0.0289917
-0.0283813
-0.0222778
-0.0143433
-0.0491333
-0.0695801
-0.0576782
-0.0299072
0.00396729
0.0683594
0.0952148
0.0793457
0.0598145
0.0643921
0.0540161
0.0262451
0.0390625
0.0881958
0.093689
0.0540161
0.0250244
0.0192261
0.0595093
0.121765
0.0964355
-0.0640869
-0.232849
-0.289001
-0.293579
-0.249634
-0.198364
-0.0820923
0.0723267
0.21698
0.357361
0.335693
0.161133
-0.0344849
-0.157776
-0.163574
-0.11322
-0.0158691
0.131226
0.155029
0.0753784
-0.00610352
0.000915527
-0.020752
-0.0756836
-0.0964355
-0.0231934
0.12207
0.263672
0.343018
0.316772
0.229797
0.0790405
-0.0784302
-0.154114
-0.166321
-0.198059
-0.205383
-0.151367
-0.115967
-0.0900269
-0.0445557
-0.0198364
-0.0137329
-0.0308228
-0.0979614
-0.188904
-0.275269
-0.233459
-0.136108
-0.0506592
0.119934
0.240173
0.179443
0.0515747
-0.0695801
-0.127258
-0.143127
-0.118103
-0.132141
-0.124817
-0.110474
-0.0982666
-0.0900269
-0.0778198
-0.0698853
-0.0610352
-0.0418091
-0.0466919
-0.0448608
-0.032959
0.020752
0.071106
0.104065
0.135498
0.122681
0.0222778
-0.0686646
-0.0613403
-0.0308228
0.00640869
0.100403
0.168457
0.156555
0.14679
0.0689697
-0.0585938
-0.164795
-0.219727
-0.177612
0
0.195312
0.310974
0.324402
0.26123
0.168152
0.0775146
-0.0241089
-0.0540161
-0.0613403
-0.0827026
-0.102234
-0.090332
-0.0640869
-0.0570679
-0.0445557
-0.0540161
-0.0271606
0.039978
0.0497437
0.0668335
0.107117
0.107117
0.085144
0.0845337
0.0735474
0.0631714
0.0378418
0.0247192
-0.0125122
0.0106812
0.032959
0.0756836
0.0500488
-0.0112915
-0.0918579
-0.196228
-0.225525
-0.126648
0.0619507
0.179749
0.229187
0.255737
0.247498
0.125122
-0.00244141
-0.107117
-0.192566
-0.241699
-0.294495
-0.294495
-0.197449
-0.112305
-0.0787354
-0.0769043
-0.107422
-0.0753784
-0.0296021
-0.00610352
-0.00793457
-0.00152588
0.0222778
0.00457764
-0.0192261
-0.0299072
-0.0149536
-0.0198364
-0.0198364
-0.0204468
-0.027771
0
0.00823975
0.0427246
0.0582886
0.0390625
-0.0106812
-0.0787354
-0.119934
-0.101318
-0.0314331
0.0247192
0.0521851
0.0588989
0.0747681
0.09552
0.0997925
0.108337
0.101929
0.085144
0.0524902
0.00213623
-0.0292969
-0.0119019
0.0100708
0.0289917
0.0238037
0.0366211
0.0271606
0.0610352
0.0720215
0.038147
0.0265503
0.0360107
0.0689697
0.140381
0.165405
0.137939
0.0991821
0.0601196
0.0732422
0.180664
0.302734
0.379639
0.412292
0.26947
0.0314331
-0.291443
-0.428467
-0.450745
-0.334473
-0.15564
-0.0201416
0.0213623
-0.027771
-0.110779
-0.186768
-0.240479
-0.243225
-0.209656
-0.162659
-0.0857544
0.0213623
0.072937
0.0564575
0.0262451
0.00244141
-0.00854492
-0.0296021
-0.0283813
-0.0244141
-0.0598145
-0.0637817
-0.0167847
0.0796509
0.143433
0.178528
0.130615
0.0582886
-0.017395
-0.0741577
-0.0402832
-0.0140381
-0.0180054
-0.0634766
-0.0613403
-0.0137329
0.0762939
0.154114
0.232239
0.239258
0.2005
0.0906372
-0.032959
-0.0863647
-0.102844
-0.117188
-0.09552
-0.0466919
-0.0167847
-0.0195312
-0.00701904
0.0262451
0.111389
0.151062
0.177612
0.23468
0.244141
0.154114
0.0231934
-0.0421143
-0.0750732
-0.083313
-0.0842285
-0.085144
-0.0793457
-0.142517
-0.161133
-0.0744629
0.03479
0.102844
0.130615
0.102539
0.0161743
-0.0610352
-0.108948
-0.158081
-0.187073
-0.111389
-0.0253296
0.00366211
0.0500488
0.0549316
0.00762939
-0.0421143
-0.0442505
-0.0448608
0.0134277
0.0744629
0.175171
0.200195
0.160217
0.153809
0.1297
0.0918579
0.0357056
-0.0531006
-0.0958252
-0.0939941
-0.0692749
-0.0357056
0.00488281
0.0183105
0.0265503
0.0466919
0.00823975
0.000305176
-0.0259399
-0.039978
-0.0366211
-0.0479126
-0.106812
-0.137024
-0.139465
-0.124817
-0.110779
-0.0518799
-0.0393677
-0.0595093
-0.0613403
-0.0442505
-0.0402832
0.0366211
0.101929
0.146179
0.180359
0.166016
0.144958
0.140076
0.122986
0.0524902
-0.0588989
-0.0979614
-0.108643
-0.0949097
-0.0784302
-0.0201416
0.0875854
0.220032
0.313721
0.332642
0.261536
0.140076
0.0183105
-0.0787354
-0.216064
-0.157166
-0.0396729
-0.0396729
-0.0442505
0.0311279
0.110474
0.19104
0.299988
0.361633
0.328369
0.272217
0.254822
0.126953
0.0247192
-0.0274658
-0.184631
-0.360413
-0.344849
-0.216064
-0.0918579
-0.0570679
-0.0222778
-0.0143433
-0.0314331
-0.0283813
-0.0222778
-0.0561523
-0.0704956
-0.0665283
-0.050354
-0.0424194
-0.0357056
-0.020752
-0.0164795
-0.00762939
-0.0119019
-0.0088501
-0.00366211
0.00701904
0.0241089
0.0180054
-0.00427246
-0.00701904
0
0.00274658
-0.0143433
-0.0177002
-0.0238037
-0.0244141
-0.020752
-0.0125122
0.00335693
0.00946045
0.0106812
0.032959
0.0448608
0.062561
0.114441
0.163879
0.194702
0.241089
0.179138
0.126648
0.0723267
-0.00305176
-0.0842285
-0.139771
-0.145874
-0.11322
-0.116577
-0.13092
-0.118408
-0.0714111
-0.0292969
0.0180054
0.062561
0.0680542
0.0119019
-0.133972
-0.196228
-0.105286
-0.0012207
0.158691
0.372009
0.494995
0.523071
0.440369
0.224915
0
-0.101013
-0.083313
-0.0857544
-0.178833
-0.25116
-0.277405
-0.275574
-0.216675
0.00244141
0.243225
0.385437
0.485229
0.481567
0.335388
0.123901
-0.0759888
-0.143738
-0.134583
-0.09552
-0.071106
-0.085144
-0.131836
-0.134277
-0.098877
-0.065918
-0.0509644
-0.0769043
-0.102539
-0.122375
-0.144348
-0.154419
-0.118713
-0.0744629
-0.0588989
-0.0537109
-0.0424194
-0.00396729
0.0509644
0.0997925
0.155029
0.149536
0.0354004
-0.093689
-0.130005
-0.100098
-0.0622559
-0.0180054
0.0256348
0.0622559
0.0744629
0.0411987
-0.0131226
-0.0720215
-0.0286865
0.0146484
0.0680542
0.107117
0.10376
0.0769043
0.00793457
-0.0686646
-0.0842285
-0.12085
-0.113831
-0.0701904
-0.0198364
-0.015564
-0.0384521
-0.015564
0.0262451
0.0369263
0.0384521
0.0262451
0.0485229
0.0460815
0.0390625
0.0537109
0.100098
0.137329
0.192261
0.223694
0.28717
0.297852
0.20874
0.0610352
-0.108948
-0.183411
-0.158081
-0.0704956
0.0320435
0.135498
0.226135
0.259094
0.198059
0.057373
-0.0805664
-0.184937
-0.232849
-0.249634
-0.247803
-0.229187
-0.179749
-0.050354
0.067749
0.0769043
0.0344849
0
-0.00518799
-0.0198364
-0.0198364
0.0430298
0.0875854
0.0814819
0.0350952
0.00183105
-0.0982666
-0.260315
-0.414734
-0.461731
-0.371399
-0.184631
0.0982666
0.344543
0.470581
0.426636
0.202942
0.0485229
-0.0115967
0.045166
0.093689
0.127869
0.138855
0.111389
0.0994873
0.118408
0.0921631
0.0167847
-0.00640869
-0.0842285
-0.167847
-0.234375
-0.179749
-0.131836
-0.0897217
-0.0265503
0.0558472
0.267334
0.508728
0.631714
0.641174
0.450745
0.101318
-0.147705
-0.279541
-0.388184
-0.335083
-0.168762
-0.0680542
0.0119019
0.219727
0.371704
0.439453
0.39032
0.243225
0.0653076
-0.0772095
-0.0613403
0.00183105
-0.0100708
-0.0708008
-0.0527954
-0.0112915
-0.0460815
-0.128479
-0.176086
-0.207825
-0.250549
-0.223999
-0.141907
-0.0769043
-0.0128174
0.00610352
-0.0149536
-0.152893
-0.323181
-0.341492
-0.248413
-0.161133
-0.126648
-0.19928
-0.281677
-0.282593
-0.21637
-0.158997
-0.0866699
-0.0534058
0.0271606
0.0744629
0.0802612
0.0439453
0.0112915
-0.00762939
-0.0259399
-0.020752
-0.00152588
0.0411987
0.0701904
0.0717163
0.0662231
0.057373
0.0427246
0.00701904
-0.00579834
0.00640869
0.032959
0.0506592
0.0576782
0.0473022
-0.0405884
-0.0637817
0.0305176
0.100708
0.100403
0.0927734
0.0582886
0.0396729
0.0186157
0.0445557
0.085144
0.101624
0.0994873
0.0946045
0.0720215
0.00488281
-0.101318
-0.177307
-0.169983
-0.116882
-0.0314331
0.103455
0.252075
0.352783
0.326538
0.259094
0.190735
0.1297
0.0515747
0.00427246
0.111694
0.221252
0.214539
0.118408
-0.0881958
-0.301819
-0.428467
-0.474854
-0.402527
-0.188293
0.06073
0.191956
0.191345
0.090332
-0.0894165
-0.318298
-0.392456
-0.230408
0.0152588
0.205688
0.319824
0.296631
0.172119
0
-0.102539
-0.078125
-0.0387573
-0.0219727
-0.0445557
-0.0704956
-0.114136
-0.0817871
0.0244141
0.105896
0.143738
0.0997925
-0.0259399
-0.0881958
-0.0384521
-0.00244141
0.00305176
0.0192261
0.0189209
0.0268555
0.0109863
0.00396729
-0.00152588
-0.00610352
-0.0100708
-0.0112915
0.0369263
0.0534058
0.0299072
0
-0.0305176
-0.00274658
0.0485229
0.0866699
0.118408
0.192871
0.236511
0.224304
0.202332
0.177917
0.13031
-0.00518799
-0.118408
-0.0772095
0.0546265
0.116882
0.111084
0.0949097
0.000305176
-0.0894165
-0.0842285
-0.00946045
0.0360107
0.0415039
-0.0268555
-0.162354
-0.219421
-0.194702
-0.0643921
-0.03479
-0.0631714
-0.0198364
0.0610352
0.0845337
0.0814819
0.0796509
0.0521851
-0.0125122
-0.0695801
-0.0814819
-0.0897217
-0.093689
-0.14679
-0.177002
-0.161133
-0.0939941
-0.0808716
-0.0195312
0.00701904
0.000915527
0.00213623
0.0305176
0.0619507
0.0662231
0.0662231
0.0405884
-0.0140381
-0.0857544
-0.144348
-0.168762
-0.151062
-0.121155
-0.0558472
0.0302124
0.06073
0.0558472
0.0473022
0.0595093
0.0540161
0.0308228
-0.0100708
-0.0479126
-0.0396729
-0.0289917
-0.0152588
-0.00213623
-0.00152588
0.0109863
0.0512695
0.0933838
0.159607
0.220337
0.17395
0.10376
0.0811768
0.0473022
0.0262451
0.0982666
0.141907
0.157166
0.14679
0.112
0.0717163
0.0180054
-0.0845337
-0.108948
-0.0088501
0.0952148
0.188293
0.223083
0.179749
0.0817871
0.0152588
0.000305176
0.00701904
0.0582886
0.0701904
-0.0305176
-0.188904
-0.229187
-0.158691
-0.101929
-0.0723267
-0.0765991
-0.157166
-0.201721
-0.186768
-0.0918579
0.0476074
0.167236
0.18219
0.118103
0.100708
0.0436401
-0.0170898
-0.0823975
-0.0842285
-0.0869751
-0.116272
-0.161743
-0.130615
-0.0454712
0.0222778
0.105896
0.206909
0.24353
0.143738
0.0186157
-0.0506592
-0.0442505
0.0460815
0.0775146
0.0213623
0.0158691
0.0219727
0.0231934
-0.0350952
-0.119324
-0.144348
-0.1297
-0.117798
-0.0460815
0.0198364
0.0305176
0.000915527
0.062561
0.18219
0.2948
0.417175
0.451355
0.3479
0.00549316
-0.219116
-0.306702
-0.297852
-0.226746
-0.109558
0.0088501
0.0527954
0.0418091
-0.0143433
0.0457764
0.0915527
0.135193
0.184021
0.206909
0.0772095
-0.0708008
-0.157471
-0.174561
-0.161133
-0.166321
-0.163574
-0.154419
-0.118408
-0.0769043
-0.0125122
0.0308228
0.109253
0.166626
0.155945
0.117493
0.126038
0.0875854
-0.0445557
-0.085144
-0.0735474
-0.106812
-0.152893
-0.118713
-0.0570679
0.00823975
0.0369263
0.0341797
0.0274658
0.0253296
-0.0106812
-0.0320435
-0.0363159
-0.032959
-0.0231934
-0.0204468
-0.0115967
-0.00732422
0.0012207
0.0244141
0.0216675
-0.00701904
-0.0296021
-0.0125122
-0.0012207
0.0241089
0.0570679
0.132141
0.107422
-0.0180054
-0.0363159
0.0823975
0.10437
0.065918
0.124512
0.100098
0.0723267
0.148621
0.268555
0.323181
0.386047
0.369568
0.276794
0.187073
0.131836
0.0146484
-0.0830078
-0.12146
-0.0646973
0.0549316
0.161133
0.28656
0.291443
0.0177002
-0.227661
-0.327759
-0.266418
-0.137634
-0.0698853
-0.0460815
-0.0415039
-0.0543213
-0.0527954
-0.141602
-0.30426
-0.432739
-0.374756
-0.179749
0.057373
0.24292
0.201111
0.0439453
-0.0811768
-0.219727
-0.271301
-0.186157
-0.062561
0.0204468
0.0494385
0.00732422
-0.0244141
-0.00549316
-0.0198364
-0.0872803
-0.127258
-0.0994873
-0.017395
0.0314331
0.055542
0.0424194
-0.0244141
-0.101013
-0.114441
-0.0872803
-0.0723267
-0.0469971
-0.0454712
-0.039978
-0.022583
-0.0201416
-0.0222778
-0.0265503
-0.0296021
-0.0265503
-0.0265503
-0.012207
0.0100708
0.0378418
0.0335693
0.0158691
0.00213623
-0.0320435
-0.045166
-0.00823975
0.0402832
0.0302124
-0.00152588
-0.0341797
-0.0390625
-0.0256348
0.0140381
0.0271606
-0.0119019
0.0109863
0.0778198
0.133972
0.152893
0.190735
0.161133
0.0473022
0.00549316
0.0537109
0.151672
0.233154
0.214233
0.0958252
0.0674438
0.202332
0.36377
0.434875
0.296936
0.071106
-0.0717163
-0.195618
-0.217896
-0.228882
-0.308533
-0.375671
-0.388794
-0.335693
-0.12085
0.218506
0.411377
0.411377
0.326233
0.173645
-0.0427246
-0.232544
-0.319824
-0.267029
-0.201111
-0.0604248
0.107727
0.212402
0.204468
0.123901
0.0775146
0.0180054
-0.0476074
-0.12207
-0.161133
-0.189514
-0.195618
-0.17395
-0.107727
-0.0549316
-0.0332642
-0.0320435
-0.00213623
0.0216675
0.0424194
0.027771
-0.015564
-0.0430298
-0.0436401
-0.0558472
-0.0460815
-0.0253296
-0.0161743
-0.00610352
0.0216675
0.0125122
-0.0238037
-0.0704956
-0.0720215
-0.0674438
-0.0518799
-0.0894165
-0.110779
-0.0909424
-0.0354004
0.0204468
0.140991
0.332336
0.498047
0.534363
0.43396
0.188904
-0.0686646
-0.165405
-0.171509
-0.110779
-0.0747681
-0.100098
-0.129089
-0.163269
-0.164185
-0.117798
-0.0588989
0.0177002
0.0939941
0.093689
0.0695801
0.198364
0.43457
0.671082
0.788269
0.611572
0.0759888
-0.355835
-0.617676
-0.680237
-0.430908
-0.105286
0.0662231
0.0787354
0
-0.0567627
-0.045166
-0.0219727
-0.0439453
-0.0646973
-0.0500488
-0.0665283
-0.0961304
-0.131836
-0.205383
-0.276184
-0.254517
-0.171204
-0.11322
-0.0534058
0.0186157
0.0558472
0.065918
0.0878906
0.0930786
0.115356
0.0906372
0.0222778
-0.0601196
-0.0924683
-0.0839233
-0.0634766
-0.0366211
-0.0192261
-0.0109863
-0.0250244
-0.00488281
0.00305176
0.00244141
0.0119019
0.0088501
0.015564
0.0198364
0.0314331
0.0479126
0.0543213
0.0488281
0.0354004
0.0308228
0.00671387
0.0128174
0.0411987
0.0744629
0.0997925
0.090332
0.0387573
0.0283813
0.0286865
0.0134277
-0.0350952
-0.071106
-0.0616455
-0.0128174
0.0814819
0.2005
0.252991
0.210266
0.101013
0.0445557
0.093689
0.133972
0.140991
0.125427
0.0875854
0.0183105
-0.015564
-0.0119019
0.0143433
0.00366211
0.0354004
0.0570679
0.118713
0.14801
0.196533
0.262146
0.193481
0.167236
0.134277
0.0512695
-0.0759888
-0.218506
-0.281677
-0.215454
-0.117493
-0.0756836
-0.0631714
-0.0622559
-0.0570679
-0.0186157
0.0396729
0.1474
0.198975
0.0695801
-0.0775146
-0.174255
-0.210266
-0.220642
-0.170288
-0.127869
-0.115967
-0.0747681
0.00457764
0.0497437
0.0805664
0.0793457
0.0378418
0.00518799
0.0296021
0.0280762
-0.0262451
-0.0854492
-0.101013
-0.0723267
-0.0415039
0.0186157
0.0405884
0.122986
0.147095
0.155945
0.126648
0.0949097
0.0457764
-0.017395
-0.0915527
-0.0946045
-0.0784302
-0.0726318
-0.0894165
-0.09552
-0.0598145
0.0180054
0.136414
0.224609
0.245667
0.218811
0.124207
-0.00946045
-0.0836182
-0.0686646
-0.0360107
-0.0134277
-0.0112915
-0.0186157
-0.0259399
-0.0143433
0.0402832
0.115662
0.195618
0.263062
0.267029
0.151978
-0.0128174
-0.0802612
-0.0265503
0.0866699
0.235901
0.392151
0.428467
0.270386
0.0448608
-0.153809
-0.321045
-0.288086
-0.224915
-0.1828
-0.167847
-0.122986
-0.0952148
-0.0674438
-0.0650024
-0.0888062
-0.150146
-0.195923
-0.198669
-0.15686
-0.0698853
0.0192261
0.0244141
0.055542
0.0473022
0.0222778
0.00152588
-0.0140381
-0.0234985
-0.0192261
-0.0262451
-0.0296021
-0.0143433
0.0180054
0.0650024
0.0961304
0.12085
0.0814819
-0.00762939
-0.0375366
-0.00976562
0.0570679
0.123901
0.1474
0.142212
0.0216675
-0.184631
-0.265503
-0.210876
-0.115662
0.0457764
0.242004
0.368958
0.393372
0.350952
0.237122
0.163574
0.0839233
0.0213623
-0.0970459
-0.201721
-0.17395
-0.0805664
-0.0369263
-0.141602
-0.227051
-0.239258
-0.176392
-0.0521851
0.107422
0.238953
0.260315
0.276184
0.260925
0.193787
0.122375
0.0506592
-0.00396729
0.00823975
0.105286
0.160217
0.0817871
-0.0439453
-0.233459
-0.367126
-0.422058
-0.418396
-0.336914
-0.205383
-0.0485229
0.0564575
0.0897217
0.0793457
0.0488281
-0.0125122
-0.0918579
-0.0653076
-0.0405884
-0.03479
-0.0143433
0.0158691
-0.00579834
-0.0357056
-0.0790405
-0.101929
-0.110168
-0.106506
-0.071106
-0.0274658
0.00946045
0.0485229
0.0808716
0.137939
0.1474
0.0784302
0.0125122
-0.0283813
-0.0445557
-0.0491333
-0.0479126
-0.0186157
0.00335693
0.0628662
0.101013
0.0775146
0.0210571
-0.0372314
-0.0473022
-0.0939941
-0.119934
-0.0421143
0.072937
0.170593
0.250854
0.247192
0.206604
0.0686646
-0.0881958
-0.213928
-0.26001
-0.216064
-0.143738
-0.0857544
-0.0683594
-0.0592041
-0.062561
-0.0296021
0.0134277
0.00488281
-0.0210571
0.0128174
0.148621
0.284424
0.383606
0.444031
0.45166
0.408936
0.3125
0.20874
0.122375
-0.0634766
-0.251465
-0.280457
-0.101624
0.0231934
0.0491333
0.0268555
-0.0500488
-0.159302
-0.151672
-0.0723267
-0.0823975
-0.162659
-0.24292
-0.246582
-0.198059
-0.105286
-0.0125122
0.067749
0.078125
0.00579834
-0.0537109
-0.192261
-0.252075
-0.163269
0.0247192
0.167847
0.246887
0.220947
0.0808716
-0.0686646
-0.128784
-0.102844
-0.0137329
0.0302124
0.0231934
0.0314331
0.0131226
-0.0646973
-0.123901
-0.11261
-0.0747681
-0.0613403
-0.0527954
-0.0680542
-0.0692749
-0.0836182
-0.100708
-0.0985718
-0.0375366
0.0531006
0.106506
0.117188
0.0650024
-0.0485229
-0.11261
-0.108948
-0.0100708
0.0802612
0.130005
0.146179
0.126648
0.0692749
-0.015564
-0.0457764
-0.0485229
0.0012207
0.0466919
0.106812
0.151978
0.1297
0.0500488
-0.0296021
-0.105591
-0.1651
-0.152283
-0.0436401
0.039978
0.0588989
0.0830078
0.0662231
0.103455
0.093689
0.00427246
-0.0888062
-0.0405884
0.0317383
0.151062
0.18158
0.189819
0.19989
0.249939
0.363464
0.393677
0.265808
0.062561
-0.0265503
-0.0604248
-0.0656128
-0.085144
-0.0817871
-0.117798
-0.157471
-0.161743
-0.148315
-0.0839233
0.00701904
0.116272
0.155029
0.176392
0.137634
0.0570679
0
-0.0457764
-0.101929
-0.143127
-0.162048
-0.145874
-0.109863
-0.0744629
-0.0531006
-0.017395
-0.0189209
-0.0488281
-0.0689697
-0.0759888
-0.078125
-0.0650024
-0.0390625
-0.0469971
-0.050354
-0.0411987
-0.0515747
-0.0674438
-0.0787354
-0.0653076
-0.0537109
-0.0436401
-0.0228882
-0.0592041
-0.0799561
-0.0564575
-0.0012207
0.00183105
0.015564
0.0372314
0.0375366
-0.0192261
-0.0564575
-0.0762939
-0.0643921
-0.0192261
0.000915527
0.00183105
0.017395
0.0177002
0.0250244
0.0338745
0.0289917
0.0274658
-0.00396729
-0.0125122
-0.0228882
-0.0460815
-0.00793457
0.0524902
0.0769043
0.050354
0.0302124
-0.0198364
-0.0296021
0.0521851
0.195007
0.362854
0.465393
0.464783
0.398865
0.285645
0.203247
0.188599
0.236816
0.168762
-0.0527954
-0.177307
-0.174255
-0.177917
-0.204468
-0.196838
-0.135193
-0.0518799
-0.0363159
-0.038147
0.0134277
0.0363159
0.0317383
-0.0979614
-0.133972
-0.158997
-0.157471
-0.158691
-0.163879
-0.132751
-0.13916
-0.113525
-0.102234
-0.107727
-0.100708
-0.0942993
-0.0894165
-0.0894165
-0.0588989
-0.0186157
-0.022583
-0.0552368
-0.0692749
-0.0598145
-0.0320435
0.00549316
0.0427246
0.072937
0.0698853
0.0012207
-0.0585938
-0.0921631
-0.101929
-0.0759888
0.0256348
0.0823975
0.0869751
0.0564575
0.0204468
0.00762939
0.0280762
0.0857544
0.143433
0.169678
0.243225
0.257568
0.120544
0.0134277
0.0460815
0.0982666
0.121155
0.100708
0.0515747
-0.0326538
-0.126648
-0.151367
-0.14679
-0.104675
0.0366211
0.14679
0.155945
0.188293
0.255432
0.28595
0.242004
0.127258
0.0296021
-0.133667
-0.202637
-0.214539
-0.188599
-0.157471
-0.039978
0.0769043
0.198059
0.175476
0.125427
0.0241089
-0.0775146
-0.10376
-0.100708
-0.123291
-0.162354
-0.176086
-0.166321
-0.129395
-0.0521851
-0.0256348
-0.0344849
-0.0314331
-0.0436401
-0.0448608
-0.0317383
-0.0201416
-0.0314331
-0.0167847
-0.00854492
-0.0100708
-0.0161743
-0.0186157
-0.0311279
-0.0372314
-0.0393677
-0.0442505
-0.022583
-0.0134277
-0.0152588
-0.0180054
-0.0241089
-0.0256348
-0.0360107
-0.0256348
0.00488281
0.00701904
-0.00274658
0.0216675
0.0616455
0.0582886
0.0527954
0.0289917
-0.00854492
-0.0317383
-0.0338745
-0.0134277
0.0259399
0.0213623
0.0610352
0.127258
0.160217
0.174866
0.184021
0.19928
0.182495
0.14801
0.088501
0.120544
0.215759
0.340576
0.430603
0.366821
0.177307
0.00976562
-0.109863
-0.168762
-0.223999
-0.180054
-0.100708
-0.0177002
-0.00396729
0.050354
-0.0311279
-0.1828
-0.205994
-0.166626
-0.175171
-0.148621
-0.085144
-0.078125
-0.0411987
-0.00183105
0.065918
0.0674438
0.108643
0.173035
0.131531
-0.0354004
-0.218201
-0.223999
-0.184937
-0.112305
-0.0344849
0.0222778
0.0189209
-0.0112915
-0.00854492
-0.00762939
-0.0396729
-0.0741577
-0.0869751
-0.0872803
-0.0866699
-0.0738525
0.0326538
0.133057
0.197144
0.209961
0.150146
0.0408936
0.00976562
0.0146484
0.0204468
0.138855
0.19043
0.107117
-0.0222778
-0.0952148
-0.0942993
-0.0619507
-0.0375366
-0.0515747
-0.0402832
-0.0427246
-0.0366211
-0.0302124
-0.0247192
-0.0183105
0.00396729
0.032959
0.0637817
0.0946045
0.115967
0.093689
0.0543213
0.0405884
0.00274658
-0.020752
-0.0109863
0.0241089
0.125732
0.224609
0.264587
0.200195
0.105591
0.0762939
0.0540161
-0.0158691
-0.0949097
-0.141296
-0.115967
-0.0524902
-0.0714111
-0.128784
-0.163879
-0.154114
-0.128784
-0.101929
0.0012207
0.0146484
-0.0268555
-0.0384521
0.0402832
0.150452
0.236511
0.313416
0.285645
0.153503
-0.0198364
-0.0112915
0.105286
0.279846
0.354919
0.387878
0.341492
0.182495
0.0247192
-0.174866
-0.28717
-0.268555
-0.233154
-0.215454
-0.259094
-0.321045
-0.307617
-0.209045
-0.0314331
0.140686
0.190125
0.0942993
-0.0210571
-0.132446
-0.193481
-0.161743
-0.0906372
-0.0656128
-0.0485229
-0.0115967
0.121765
0.198059
0.159607
0.0814819
0.0366211
-0.0610352
-0.149841
-0.127563
-0.0692749
-0.00183105
0.0137329
-0.0418091
-0.11261
-0.14801
-0.11261
-0.0915527
-0.0521851
0.0369263
0.0985718
0.116882
0.10376
0.0778198
0.0759888
0.0524902
0.071106
0.108643
0.0778198
-0.0222778
-0.0949097
-0.0967407
-0.0881958
-0.0918579
-0.0296021
0.0595093
0.105896
0.124207
0.138245
0.142212
0.101013
-0.0100708
-0.1297
-0.188599
-0.194397
-0.116577
-0.00274658
0.0344849
0.022583
0.00366211
-0.03479
-0.104065
-0.14801
-0.133667
-0.114746
-0.0881958
-0.0378418
0.0143433
0.0384521
0.0378418
0.0231934
0.00610352
0.0338745
0.151062
0.233154
0.224304
0.236206
0.233459
0.115356
0.0158691
-0.0112915
-0.0320435
-0.0631714
-0.0543213
-0.0387573
-0.0146484
0.03479
0.0888062
0.0912476
0.0332642
-0.0476074
-0.093689
-0.0793457
-0.00732422
0.0769043
0.126648
0.125732
0.0875854
0.0265503
0.0128174
0.148621
0.328674
0.493164
0.583191
0.576477
0.364075
0.125732
0.00427246
-0.0808716
-0.19165
-0.306091
-0.312805
-0.28595
-0.238037
-0.189819
-0.158081
-0.123291
-0.0979614
-0.0308228
-0.00427246
-0.0250244
-0.126648
-0.163879
-0.169678
-0.139465
-0.0650024
0.00946045
0.106201
0.128784
0.0973511
-0.0109863
-0.109558
-0.118103
-0.0802612
-0.0524902
-0.0357056
-0.0210571
-0.0808716
-0.153809
-0.205688
-0.20813
-0.163269
-0.0860596
-0.00305176
0.043335
0.0247192
-0.0393677
-0.0769043
-0.103455
-0.0982666
-0.0592041
0
0.0582886
0.0857544
0.116577
0.108337
0.0610352
0.0521851
0.0604248
0.043335
0.043335
0.0964355
0.107727
0.0613403
-0.00213623
-0.0604248
-0.136108
-0.206299
-0.220032
-0.173645
-0.0796509
0.0161743
0.0762939
0.12085
0.145569
0.194702
0.264587
0.34729
0.415649
0.446777
0.336609
0.105896
-0.0460815
-0.1297
-0.112
-0.0549316
-0.0387573
0.0363159
0.0128174
-0.0521851
-0.0473022
-0.0228882
-0.0216675
-0.0823975
-0.190125
-0.335693
-0.383301
-0.214233
-0.0543213
0.0942993
0.19043
0.219727
0.197449
0.138855
0.0686646
0.0167847
-0.0088501
-0.0460815
-0.071106
-0.0747681
-0.0442505
0.0231934
0.101318
0.143738
0.185242
0.283508
0.267639
0.18158
0.111389
0.0167847
-0.139771
-0.193481
-0.202637
-0.20813
-0.173645
-0.0646973
0.0521851
0.0839233
0.067749
0.0680542
0.0421143
-0.00640869
0.00488281
0.0814819
0.0811768
0.0167847
-0.0515747
-0.0588989
-0.10376
-0.156555
-0.154114
-0.0985718
-0.0765991
-0.00549316
0.0537109
0.093689
0.10498
0.0949097
0.0930786
0.0643921
-0.0125122
-0.104675
-0.137024
-0.145874
-0.169678
-0.15686
-0.0772095
0.0280762
0.0366211
0.0497437
0.0985718
0.118713
0.100403
0.0289917
-0.0289917
-0.0195312
0.00946045
0.0469971
0.0622559
0.0537109
0.0259399
-0.0213623
-0.0521851
-0.0469971
-0.0354004
-0.0210571
0.00915527
-0.00213623
-0.0421143
-0.0360107
0.0540161
0.0912476
0.0424194
-0.00305176
0.0210571
0.0384521
0.0985718
0.191345
0.195007
0.0942993
0.0320435
-0.0183105
-0.0924683
-0.0646973
0.00213623
0
-0.0088501
0.0280762
0.106506
0.139771
0.102844
0.0540161
0.0546265
0.00244141
-0.0341797
0.00610352
0.0357056
-0.0305176
-0.14801
-0.23468
-0.279236
-0.254822
-0.13031
-0.0259399
0.0918579
0.149231
0.141296
0.0949097
0.0247192
-0.015564
-0.0219727
-0.0183105
-0.0366211
-0.0427246
-0.06073
-0.0698853
-0.067749
-0.10376
-0.121155
-0.106506
-0.118103
-0.148926
-0.131531
-0.0408936
0.0476074
0.0869751
0.153503
0.216675
0.263367
0.2771
0.259094
0.213928
0.111694
0.0216675
-0.110779
-0.15564
-0.120544
-0.0759888
-0.0595093
-0.0524902
-0.0411987
-0.0332642
-0.0360107
-0.0473022
-0.0280762
0.00274658
0.0350952
0.0558472
0.0631714
0.0747681
0.0732422
0.100403
0.0915527
0.0442505
-0.020752
-0.0201416
-0.0234985
-0.0405884
-0.0512695
-0.072937
-0.0958252
-0.111694
-0.0793457
-0.0198364
0.0271606
0.0454712
0.065918
0.0973511
0.10437
0.112305
0.125427
0.118713
0.0769043
0.0793457
0.0900269
0.0869751
0.0698853
0.0790405
0.0421143
-0.0418091
-0.0817871
-0.0643921
-0.0448608
-0.0854492
-0.1474
-0.135498
-0.0592041
-0.0549316
0.00946045
0.0256348
-0.0125122
-0.0137329
0.0485229
0.0759888
0.149536
0.285645
0.397644
0.369568
0.184326
0.101318
-0.0326538
-0.184631
-0.278931
-0.210571
-0.0985718
0.00671387
0.116272
0.11261
0.0180054
-0.0256348
-0.0125122
0.00762939
0.0192261
-0.038147
-0.119934
-0.100708
-0.0256348
0.0259399
0.0561523
0.126953
0.155029
0.114441
0.0622559
0.0265503
-0.0219727
-0.0918579
-0.12146
-0.0924683
-0.0674438
-0.0735474
-0.127258
-0.133057
-0.105896
-0.140991
-0.162659
-0.177917
-0.25238
-0.277405
-0.208435
-0.119934
-0.0363159
0.022583
0.043335
0.0350952
0.0549316
0.0488281
0.0775146
0.0900269
0.0817871
0.0500488
-0.00640869
-0.0674438
-0.0991821
-0.127258
-0.0796509
0.0134277
0.0753784
0.10376
0.15564
0.190735
0.170898
0.114136
0.0640869
0.0231934
0.0106812
-0.00396729
-0.0366211
-0.0256348
-0.0119019
-0.00793457
0.00152588
0.0540161
0.101624
0.134583
0.171814
0.232239
0.292053
0.264893
0.0454712
-0.118103
-0.0488281
-0.0344849
-0.0918579
-0.0967407
-0.0720215
-0.0549316
-0.0195312
0.0317383
0.0888062
0.213928
0.332336
0.340881
0.209351
0.045166
-0.0424194
-0.104065
-0.135498
-0.128174
-0.109558
-0.116272
-0.17334
-0.13855
-0.105286
-0.0595093
-0.0274658
-0.0527954
-0.09552
-0.113525
-0.109558
-0.0961304
-0.0515747
0.0140381
-0.00305176
-0.0222778
-0.0158691
-0.0234985
-0.0320435
0.0375366
0.103149
0.111084
0.0848389
0.0454712
-0.00946045
-0.138245
-0.265198
-0.267639
-0.263672
-0.228882
-0.090332
0.038147
0.111694
0.151672
0.112915
0.0430298
0.0308228
0.06073
0.03479
0.0604248
0.0598145
0.0354004
0.00701904
-0.0152588
-0.0228882
-0.0183105
-0.00671387
0.038147
0.0985718
0.197449
0.299377
0.37323
0.354309
0.295105
0.259399
0.117188
-0.00366211
-0.0524902
-0.0320435
-0.0186157
-0.0213623
-0.0482178
0.0100708
0.0863647
0.177002
0.105896
0.0302124
0.0579834
0.0320435
-0.0601196
-0.0680542
-0.0772095
-0.163879
-0.203247
-0.221863
-0.201416
-0.197144
-0.119934
-0.0152588
-0.0125122
-0.0543213
-0.109558
-0.173645
-0.181885
-0.0796509
0.055542
0.126648
0.204773
0.131836
-0.038147
-0.104675
-0.0881958
-0.0973511
-0.139465
-0.115662
-0.0582886
-0.0149536
0.00732422
0.00152588
-0.0213623
-0.0271606
-0.0238037
-0.0366211
-0.0378418
-0.0360107
-0.00976562
-0.00579834
-0.0195312
-0.0186157
-0.020752
-0.00793457
0.00793457
0.0180054
0.0189209
0.0274658
0.0405884
0.0222778
0.0158691
0.0189209
0.0289917
0.0305176
0.0366211
0.0357056
0.022583
0.0265503
0.0732422
0.10437
0.122375
0.174866
0.207214
0.165405
0.118103
0.126953
0.111084
0.0787354
0.115967
0.238037
0.272217
0.243835
0.209351
0.093689
0.0161743
-0.0466919
-0.124817
-0.0167847
0.143433
0.230103
0.265503
0.262756
0.126343
-0.0421143
-0.184937
-0.175171
-0.145569
-0.143738
-0.204163
-0.249634
-0.27832
-0.26001
-0.287476
-0.234375
-0.183411
-0.1474
-0.128479
-0.0170898
0.045166
0.0402832
0.0119019
0.0088501
0.0253296
-0.0350952
-0.0958252
-0.108337
-0.0643921
-0.0845337
-0.0128174
0.0714111
0.127869
0.119324
0.0442505
-0.0250244
-0.0494385
-0.0369263
0.000915527
0.0192261
0.0250244
0.0271606
-0.0088501
-0.0100708
-0.0305176
-0.0570679
-0.0518799
0.0396729
0.193481
0.316772
0.341797
0.327148
0.331421
0.177002
-0.0128174
0.00488281
0.0842285
0.0668335
0.0369263
0.0479126
0.0631714
0.0283813
-0.0360107
-0.103149
-0.180664
-0.219727
-0.202332
-0.144958
-0.0723267
-0.032959
-0.0204468
-0.0100708
0.0088501
0.0384521
0.0631714
0.0717163
0.0967407
0.140076
0.167542
0.148621
0.13031
0.159607
0.137634
0.0997925
0.0485229
0.0814819
0.122986
0.155945
0.176697
0.221252
0.19104
0.027771
-0.167542
-0.233154
-0.247498
-0.240479
-0.2005
-0.098877
-0.0802612
-0.0817871
-0.0820923
-0.0982666
-0.137024
-0.139771
-0.1474
-0.220642
-0.261841
-0.225525
-0.163269
-0.109863
-0.0341797
0.0576782
0.0634766
0.0485229
0.0180054
-0.00610352
-0.00701904
-0.0271606
-0.0970459
-0.164795
-0.141602
-0.0396729
0.0653076
0.149231
0.213013
0.182495
0.104675
0.0601196
0.00335693
-0.0280762
0.00274658
0.0354004
0.0485229
0.0463867
0.055542
0.0540161
0.0643921
0.0622559
0.0354004
0.00396729
-0.0167847
-0.0466919
-0.0421143
-0.0375366
-0.0747681
-0.0881958
-0.072937
-0.0643921
-0.0570679
-0.0524902
-0.0216675
0.0253296
0.0665283
0.101929
0.131836
0.103149
0.0582886
0
-0.0497437
-0.0610352
-0.0241089
0.0170898
0.0109863
-0.045166
-0.124512
-0.157166
-0.255737
-0.256653
-0.13031
0.0720215
0.21698
0.294495
0.314026
0.276794
0.248413
0.1651
0.12207
0.142212
0.134888
0.0314331
-0.113525
-0.178528
-0.214539
-0.176697
-0.133057
-0.0979614
-0.0888062
-0.0863647
-0.0918579
-0.0982666
-0.0927734
-0.0790405
-0.0506592
-0.017395
0.0598145
0.0769043
0.0662231
0.0396729
0.0289917
0.0637817
0.0704956
0.0289917
0.00762939
0.00610352
0.00305176
-0.0289917
-0.111389
-0.187073
-0.181274
-0.132141
-0.0408936
0.0201416
0.125427
0.177002
0.123901
0.11322
0.157471
0.151367
0.0872803
0.0146484
-0.0714111
-0.111389
-0.0543213
0.00823975
0.0372314
0.06073
0.0836182
0.114441
0.123901
0.0946045
0.0360107
-0.00335693
-0.0204468
-0.0540161
-0.0668335
-0.11261
-0.119324
-0.109863
-0.107727
-0.09552
-0.0869751
-0.0775146
-0.0653076
-0.06073
-0.0473022
-0.0537109
-0.0564575
-0.039978
-0.0344849
-0.0393677
-0.0341797
-0.0119019
0.0192261
0.0448608
0.0787354
0.0680542
0.0213623
-0.0689697
-0.126648
-0.102844
-0.0686646
-0.00183105
0.0985718
0.200806
0.250244
0.259399
0.239258
0.167847
0.00610352
-0.231018
-0.395203
-0.441284
-0.362854
-0.235291
-0.101929
0.0296021
0.0494385
0.0137329
-0.00488281
-0.00518799
-0.00823975
-0.00488281
0.00152588
0.0149536
0.0335693
0.022583
0.015564
0.00671387
-0.00579834
0.0180054
0.129089
0.193787
0.164185
0.149841
0.108337
0.0222778
-0.0973511
-0.135193
-0.0241089
0.114746
0.179443
0.1297
0.0915527
0.0598145
0.0012207
-0.143738
-0.166931
-0.0979614
-0.0158691
0.00305176
-0.00549316
-0.010376
0.0134277
0.0216675
0.0262451
-0.0213623
-0.0714111
-0.0759888
-0.0494385
-0.0335693
-0.0320435
-0.0402832
-0.0491333
-0.0570679
-0.0534058
-0.0469971
-0.0354004
-0.0332642
-0.0332642
-0.0338745
-0.0411987
-0.0534058
-0.0643921
-0.0576782
-0.050354
-0.0268555
-0.0231934
-0.00732422
0.0161743
0.0228882
0.0323486
0.0479126
0.0360107
0.0201416
0.00610352
0.0213623
0.0415039
0.0784302
0.132446
0.141907
0.127563
0.15686
0.26947
0.405884
0.505676
0.497742
0.406189
0.166626
-0.0180054
-0.110474
-0.202332
-0.206604
-0.148621
-0.0915527
-0.0982666
-0.132141
-0.21759
-0.261536
-0.228271
-0.170898
-0.0354004
0.170898
0.267639
0.212708
0.162354
0.130005
0.0653076
0.0372314
0.109863
0.101013
-0.0726318
-0.154114
-0.133972
-0.101318
-0.065918
-0.0506592
-0.0384521
-0.0369263
-0.0393677
-0.0213623
0.00274658
0.0183105
0.0582886
0.0942993
0.0930786
0.116272
0.127258
0.0906372
0.0521851
0.0250244
-0.0250244
-0.166321
-0.207214
-0.0982666
-0.0286865
-0.0637817
-0.0973511
-0.0924683
-0.0335693
0.0439453
0.119629
0.176086
0.188293
0.146179
0.0964355
0.0784302
0.09552
0.0808716
0.0726318
0.0796509
0.0448608
-0.017395
0.00610352
0.0286865
-0.00640869
0.00335693
0.0924683
0.172119
0.141907
0.0665283
-0.0216675
-0.0979614
-0.111694
-0.0427246
0.0317383
-0.010376
-0.0747681
-0.0588989
-0.022583
-0.0100708
-0.0296021
0.0244141
0.0738525
0.0643921
0.0442505
0.0164795
0.0430298
0.100098
0.0311279
-0.010376
0.0540161
0.0878906
0.00823975
-0.0616455
0.0134277
0.0814819
0.126038
0.177612
0.254211
0.267029
0.174866
0.0869751
0.00305176
-0.0427246
-0.0247192
0.0253296
0.0570679
0.0283813
-0.0881958
-0.209961
-0.26947
-0.335388
-0.362549
-0.325012
-0.223999
-0.143127
-0.0558472
0.0213623
0.0119019
-0.0271606
-0.0741577
-0.14679
-0.185852
-0.167847
-0.11322
-0.0241089
0.0784302
0.124817
0.159302
0.136108
0.112915
0.121765
0.115051
0.0869751
0.0540161
0.0201416
-0.0125122
-0.0543213
-0.0668335
-0.0115967
0.0463867
0.0817871
0.0906372
0.0622559
0.0231934
-0.0128174
-0.0592041
-0.0265503
0.0439453
0.043335
0.00274658
0.0500488
0.0491333
-0.0588989
-0.115356
-0.0735474
-0.0473022
-0.0448608
-0.0439453
-0.0119019
0.0570679
0.123291
0.167542
0.205383
0.193176
0.131836
0.0460815
-0.0320435
-0.0436401
-0.0338745
-0.0537109
-0.085144
-0.0881958
-0.085144
-0.0491333
-0.0393677
-0.0482178
-0.027771
-0.00366211
0.0134277
0.0302124
0.0537109
0.0924683
0.0808716
0.0765991
0.168457
0.249939
0.198975
0.0839233
0.0302124
0.0161743
-0.012207
-0.071106
-0.0875854
-0.0671387
-0.0427246
-0.0268555
-0.0143433
0.0317383
0.0375366
-0.0485229
-0.180359
-0.276489
-0.254517
-0.231323
-0.185547
-0.057373
0.0354004
0.0558472
0.000610352
-0.00488281
0.0296021
0.0860596
0.107117
0.0314331
-0.0872803
-0.102234
-0.0476074
0.0732422
0.146484
0.148621
0.14801
0.133667
0.0646973
-0.0491333
-0.0857544
-0.0662231
-0.0332642
-0.0540161
-0.14801
-0.191956
-0.177307
-0.143127
-0.0704956
0.0531006
0.0973511
0.0842285
0.022583
-0.0271606
-0.0241089
0.0830078
0.163574
0.158997
0.142517
0.112915
0.00396729
-0.114136
-0.152588
-0.174866
-0.21698
-0.224609
-0.137024
-0.0463867
0.00396729
-0.00854492
-0.0167847
-0.0271606
-0.050354
-0.100708
-0.135498
-0.137329
-0.0881958
-0.0326538
0.00549316
-0.0198364
-0.00671387
-0.00274658
-0.038147
-0.0491333
0.0198364
0.136414
0.193176
0.275574
0.228577
0.100403
-0.0177002
-0.0772095
-0.0439453
0.045166
0.1651
0.218506
0.149536
0.000915527
-0.0942993
-0.1297
-0.155945
-0.195007
-0.2005
-0.194092
-0.22644
-0.226135
-0.160522
-0.0543213
-0.0198364
-0.0320435
-0.0402832
-0.0323486
-0.0299072
-0.0424194
-0.0445557
-0.0323486
-0.0186157
0.0183105
0.0457764
0.0463867
0.0387573
0.0222778
-0.00457764
-0.0732422
-0.0866699
-0.0927734
-0.135803
-0.130615
0.0143433
0.196228
0.266724
0.255432
0.167542
0.0357056
-0.020752
-0.0335693
-0.0524902
-0.104675
-0.0747681
0.0259399
0.126648
0.207825
0.260925
0.292664
0.256042
0.197449
0.117798
0.0204468
-0.0881958
-0.224915
-0.253601
-0.23407
-0.235596
-0.221558
-0.157166
-0.0509644
0.123596
0.28656
0.367432
0.406494
0.369568
0.220032
-0.0189209
-0.236206
-0.297852
-0.237122
-0.0140381
0.296631
0.447693
0.392151
0.221863
-0.0476074
-0.38208
-0.395813
-0.188904
0.0161743
0.0393677
-0.0808716
-0.152588
-0.168762
-0.180664
-0.176086
-0.2005
-0.224304
-0.213928
-0.162048
-0.0909424
0.0534058
0.241394
0.362244
0.332642
0.174561
-0.0869751
-0.311279
-0.406189
-0.363159
-0.235291
-0.0799561
0.0384521
0.12146
0.143738
0.133667
0.0695801
0.0170898
-0.00152588
0.0231934
0.0344849
0.0473022
0.0643921
0.0585938
0.0204468
0.00366211
0.0152588
-0.00152588
0.00457764
-0.00244141
0.0320435
0.0527954
0.0769043
0.129089
0.189514
0.206909
0.210571
0.161438
0.0564575
-0.0344849
-0.104065
-0.192566
-0.177917
-0.0180054
0.140991
0.238037
0.294189
0.299683
0.229797
0.170898
0.105896
0.0753784
0.0256348
-0.0588989
-0.100098
-0.0979614
0.0119019
0.130615
0.209656
0.23468
0.162659
0.0466919
-0.142822
-0.140381
-0.0726318
-0.0616455
-0.0915527
-0.151062
-0.21759
-0.326538
-0.375061
-0.314331
-0.19043
-0.0640869
0.03479
0.0741577
0.0457764
0.0106812
-0.0378418
-0.142212
-0.241699
-0.281982
-0.228577
-0.104065
0.055542
0.228271
0.375061
0.288391
0.158691
0.0817871
0.0436401
0.0299072
0.0735474
0.108948
0.102539
0.117493
0.133362
0.187988
0.308533
0.380554
0.305786
0.123901
-0.0280762
-0.118713
-0.138245
-0.133972
-0.149536
-0.15686
-0.146179
-0.137329
-0.141602
-0.0448608
0.0283813
0.0680542
0.0881958
0.0613403
0.0610352
0.00305176
-0.0445557
-0.0427246
0.00457764
0.0332642
0.0506592
0.0765991
0.0778198
0.0827026
0.0668335
0.127563
0.184021
0.218811
0.257568
0.219421
0.0961304
-0.00274658
-0.0494385
-0.160828
-0.177307
-0.126953
-0.113525
-0.105896
-0.071106
-0.0686646
-0.0958252
-0.0811768
-0.0314331
0.088501
0.229187
0.403748
0.437317
0.306702
0.187073
0.0411987
-0.119629
-0.204468
-0.212402
-0.182495
-0.178833
-0.232239
-0.30365
-0.305481
-0.237732
-0.12085
0.0875854
0.176697
0.201416
0.23407
0.254517
0.135498
0.067749
0.123901
0.167236
0.189514
0.162964
0.102844
0.0143433
-0.0317383
-0.0531006
-0.0842285
-0.138245
-0.100708
-0.0723267
-0.0527954
-0.0576782
0.00946045
0.0650024
0.103149
0.133972
0.117798
0.00976562
-0.139465
-0.102844
0.00640869
0.0949097
0.126343
0.162048
0.201416
0.215454
0.198975
0.121155
0.0689697
0.0326538
-0.027771
-0.0854492
-0.0628662
-0.00518799
0.0415039
0.0143433
0.0228882
0.0875854
0.0866699
0.0222778
-0.0613403
-0.137939
-0.172729
-0.174255
-0.140381
-0.106201
-0.045166
-0.00488281
-0.0323486
-0.0961304
-0.131531
-0.122681
-0.129089
-0.18158
-0.219421
-0.161133
-0.122681
-0.0564575
0.0808716
0.172729
0.182495
0.195618
0.195618
0.198364
0.171204
0.0732422
0.0350952
0.06073
0.0973511
0.12146
0.0897217
0.0424194
-0.0271606
-0.0222778
0.0241089
0.0631714
0.062561
0.0317383
-0.0088501
-0.017395
0.0650024
0.147095
0.17334
0.144653
0.0411987
-0.150452
-0.256348
-0.29541
-0.252991
-0.152893
-0.0479126
0.0411987
0.0747681
0.078125
0.0970459
0.0900269
0.0241089
0.000610352
-0.015564
-0.072937
-0.116882
-0.117493
-0.0653076
-0.00579834
0.0189209
0.0546265
0.0323486
-0.0177002
-0.0448608
-0.0357056
-0.0222778
0.0170898
0.0619507
0.0674438
0.0784302
0.102539
0.110474
0.127258
0.139771
0.0701904
0.0466919
0.067749
0.0646973
-0.0231934
-0.0860596
-0.115662
-0.131226
-0.0860596
-0.0524902
-0.0296021
0.00640869
0.0189209
0.0274658
0.0668335
0.0637817
0.0521851
0.0436401
0.0167847
-0.0271606
-0.0274658
-0.0314331
-0.0231934
-0.0308228
-0.0274658
-0.0344849
-0.0418091
-0.0811768
-0.107117
-0.0561523
0.0308228
0.163574
0.281982
0.285034
0.128784
-0.0845337
-0.209351
-0.23468
-0.161743
-0.0238037
0.0930786
0.17334
0.269165
0.389709
0.474243
0.476379
0.356445
0.0744629
-0.170288
-0.254517
-0.248108
-0.202942
-0.123291
-0.0454712
-0.00152588
0.00671387
-0.00579834
-0.0546265
-0.13092
-0.220337
-0.313721
-0.325012
-0.306396
-0.193481
-0.0894165
-0.0384521
-0.00701904
0.0131226
0.0125122
0.0158691
0.0595093
0.110779
0.134888
0.141907
0.0411987
-0.0430298
-0.0689697
-0.0665283
-0.00854492
0.0650024
0.117188
0.121155
-0.00854492
-0.162964
-0.151672
-0.0778198
0.0170898
0.106812
0.140686
0.112
0.0668335
0.0491333
0.0296021
0.0332642
0.062561
0.0823975
0.0656128
-0.0146484
-0.0830078
-0.0839233
-0.0588989
-0.0323486
0
0.0131226
0.0210571
0.00610352
-0.0479126
-0.100708
-0.0875854
-0.0860596
-0.0692749
-0.0683594
-0.0723267
-0.0686646
-0.0250244
0.0244141
0.072937
0.128174
0.151367
0.148926
0.0942993
0.0869751
0.127258
0.103455
0.101929
0.0823975
0.0717163
0.195007
0.355835
0.397034
0.300903
0.17395
0.0717163
-0.138245
-0.296021
-0.34668
-0.32074
-0.35675
-0.332031
-0.267639
-0.143433
-0.0686646
-0.0622559
-0.164795
-0.249939
-0.256348
-0.139771
0.127869
0.307312
0.327759
0.191345
-0.0338745
-0.185242
-0.227661
-0.17334
-0.144348
-0.0979614
-0.0186157
0.0219727
0
-0.00610352
-0.0131226
0
0.0320435
0.0390625
0.0308228
0.0460815
0.0448608
0.0213623
-0.0152588
-0.038147
-0.0289917
0.0369263
0.0909424
0.140686
0.157471
0.149841
0.043335
-0.0561523
-0.0888062
-0.0564575
0.00305176
0.0750732
0.147705
0.153198
0.0888062
0.093689
0.0772095
0.126648
0.140686
0.115967
0.0314331
-0.0671387
-0.119019
-0.105591
-0.102539
-0.108948
-0.0942993
-0.0811768
-0.0448608
0.0308228
0.160522
0.257263
0.316467
0.331116
0.23468
0.11261
0.0567627
-0.0143433
-0.122681
-0.140686
-0.117798
-0.144043
-0.221863
-0.291748
-0.30365
-0.263367
-0.282898
-0.24231
-0.126953
-0.0088501
0.0668335
0.143433
0.140991
0.0219727
-0.00823975
0.0201416
-0.0213623
-0.00366211
-0.0219727
-0.0906372
-0.125732
-0.131836
-0.0939941
-0.0357056
0.0216675
0.00457764
0
-0.0259399
-0.0369263
-0.0323486
-0.0411987
-0.0402832
-0.0408936
-0.0100708
0.00671387
0.0271606
0.017395
0.00579834
0.00396729
0.0100708
0.0192261
0.0161743
0.0259399
0.0177002
0.0302124
0.0320435
0.0180054
0.0448608
0.0543213
-0.0671387
-0.200195
-0.18158
-0.100708
-0.0546265
0.0723267
0.218201
0.307312
0.400391
0.446472
0.500488
0.525818
0.467834
0.391541
0.281372
0.200195
0.235596
0.292053
0.212097
0.0466919
-0.0427246
-0.0921631
-0.111694
-0.184937
-0.254517
-0.234985
-0.167847
-0.115051
-0.0866699
-0.0830078
-0.0564575
-0.0405884
-0.0549316
-0.0967407
-0.135803
-0.149536
-0.131226
-0.0915527
-0.0540161
-0.0817871
-0.0949097
-0.0897217
-0.067749
-0.0421143
-0.00274658
0.00915527
0.017395
-0.00213623
-0.0244141
-0.0396729
-0.107422
-0.135193
-0.133972
-0.0878906
-0.12207
-0.12207
-0.0650024
-0.00701904
0.000915527
0.0149536
-0.00457764
0.012207
0.102539
0.152283
0.151978
0.184021
0.213318
0.28656
0.420837
0.514526
0.511169
0.411682
0.109253
-0.184021
-0.322266
-0.222168
-0.0534058
0.0115967
0.0769043
0.0524902
-0.0201416
-0.0778198
-0.102539
-0.0842285
0.0164795
0.114746
0.225525
0.345459
0.392151
0.290222
0.136108
-0.00213623
-0.098877
-0.123901
-0.0775146
-0.0308228
-0.0158691
-0.0012207
-0.0338745
-0.138245
-0.201111
-0.145264
-0.03479
0.090332
0.186768
0.180054
0.0280762
-0.144958
-0.207825
-0.233459
-0.22522
-0.14679
0
0.0509644
0.0564575
0.0537109
0.0354004
0.0500488
0.100403
0.0515747
-0.00701904
0.0241089
0.000610352
0.00518799
0.0723267
0.0302124
-0.0289917
-0.0393677
-0.0427246
-0.0598145
-0.0540161
-0.00579834
0.0637817
0.124512
0.160522
0.167542
0.141907
0.0982666
0.0186157
-0.0326538
-0.0357056
0.00732422
-0.0183105
-0.0546265
-0.0463867
-0.093689
-0.154114
-0.153198
-0.166321
-0.1828
-0.188293
-0.151672
-0.0634766
0.0152588
0.00518799
0.00152588
0.00152588
0
0.0396729
0.0143433
-0.032959
-0.0366211
-0.0219727
0.0134277
0.0415039
0.0692749
0.0741577
0.0540161
0.038147
0.100708
0.210571
0.251465
0.192871
0.050354
-0.0506592
-0.0384521
-0.00457764
0.0344849
0.0280762
-0.03479
-0.0952148
-0.0775146
-0.0302124
0.085144
0.171814
0.176697
0.105591
0.0500488
0.00823975
-0.045166
-0.0515747
0.0906372
0.171204
0.123291
0.0271606
-0.0445557
-0.0967407
-0.107727
-0.0695801
-0.0234985
-0.0714111
-0.0897217
-0.0338745
0.0473022
0.0897217
0.0952148
0.0985718
0.0921631
0.0741577
0.000915527
-0.03479
-0.0686646
-0.19043
-0.240784
-0.191345
-0.0817871
-0.0537109
-0.027771
0.0723267
0.126343
0.0790405
0.0680542
0.0933838
-0.0119019
-0.121765
-0.166321
-0.14801
-0.0616455
0.088501
0.227966
0.237732
0.155945
0.00152588
-0.197144
-0.282898
-0.194702
-0.0775146
0.0186157
0.0372314
0.0323486
0.0799561
0.148315
0.113525
0.0759888
0.0552368
-0.0540161
-0.140076
-0.167542
-0.13855
-0.0695801
0.0274658
0.0485229
0.00915527
-0.00762939
-0.0579834
-0.0576782
-0.0167847
0.0592041
0.122986
0.132141
0.150146
0.141907
0.0668335
-0.0311279
-0.128174
-0.172119
-0.151062
-0.0769043
-0.0378418
-0.0656128
-0.0860596
-0.120544
-0.127563
-0.0985718
-0.0543213
-0.0335693
0.0228882
0.0790405
0.09552
0.0750732
0.0500488
0.0180054
-0.0488281
-0.038147
0.00793457
0.0128174
-0.0195312
-0.108032
-0.160217
-0.154419
-0.152283
-0.0949097
0.000305176
0.0125122
0.0106812
0.038147
0.0582886
0.0933838
0.15686
0.213318
0.322266
0.462952
0.560608
0.507812
0.3302
-0.00579834
-0.377197
-0.515442
-0.555725
-0.596313
-0.563965
-0.476685
-0.315247
-0.0778198
0.121155
0.229492
0.270691
0.32135
0.388184
0.334778
0.176697
-0.0222778
-0.239258
-0.365295
-0.370178
-0.295715
-0.161438
0.00396729
0.0518799
0.0396729
0.00610352
-0.0448608
-0.0875854
-0.0662231
-0.020752
0.0183105
0.00274658
-0.0387573
-0.0634766
-0.110168
-0.0848389
-0.0296021
-0.00671387
0.00671387
0.0460815
0.085144
0.0875854
0.0579834
0.0375366
0.00427246
-0.00610352
-0.00671387
-0.0360107
-0.0241089
-0.0326538
-0.0482178
-0.0564575
-0.0372314
0.0280762
0.0778198
0.141296
0.160522
0.153809
0.111084
0.0378418
-0.0494385
-0.0994873
-0.0686646
-0.0326538
-0.0216675
0.0241089
0.0878906
0.115051
0.177612
0.240173
0.203857
0.162964
0.194397
0.193176
0.127563
0.0875854
0.1297
0.168457
0.24353
0.304871
0.290222
0.149231
-0.132141
-0.350037
-0.379639
-0.283203
-0.213013
-0.127258
-0.017395
0.0662231
0.122986
0.0808716
-0.0213623
-0.15686
-0.273438
-0.294189
-0.258789
-0.143738
0.000610352
0.0878906
0.0735474
0.010376
-0.0509644
-0.121765
-0.196838
-0.158386
0.0210571
0.143127
0.175476
0.134583
0.0762939
-0.0387573
-0.101013
-0.0759888
-0.0363159
-0.0146484
-0.0292969
-0.0460815
-0.0698853
-0.0772095
-0.0784302
-0.0674438
-0.0128174
0.055542
0.0939941
0.0845337
0.0558472
0.039978
0.027771
0.0253296
0.0653076
0.0192261
0.010376
0.0088501
0.0115967
0.0149536
0.0134277
0.0170898
0.0268555
0.0344849
0.0527954
0.0793457
0.0875854
0.0692749
0.0527954
0.0598145
0.100708
0.102844
0.150146
0.245667
0.320129
0.302429
0.259094
0.205994
0.0714111
-0.022583
-0.0747681
-0.105286
-0.116882
-0.135498
-0.111694
-0.0939941
-0.0714111
-0.0494385
-0.0476074
-0.0314331
-0.0137329
0.0866699
0.244446
0.350037
0.287476
0.0305176
-0.17395
-0.296021
-0.350952
-0.271301
-0.0680542
0
-0.017395
0.045166
0.0942993
0.0357056
-0.0201416
-0.0405884
-0.0738525
-0.148315
-0.190125
-0.187988
-0.171814
-0.155334
-0.0817871
-0.0363159
0.0238037
0.00305176
-0.0314331
-0.057373
-0.0720215
-0.107727
-0.156555
-0.179749
-0.183411
-0.140686
-0.0445557
0.0289917
0.0646973
0.0497437
0.0112915
-0.020752
-0.0128174
-0.015564
-0.0289917
-0.00793457
0.0411987
0.032959
0.00854492
-0.0253296
-0.0686646
-0.0714111
-0.0393677
-0.00549316
0.0619507
0.180969
0.23468
0.230408
0.254211
0.283508
0.26123
0.223083
0.251465
0.237732
0.0915527
-0.0857544
-0.152588
-0.210876
-0.254211
-0.236511
-0.193176
-0.153809
-0.141602
-0.115967
-0.0686646
0.0198364
0.0894165
0.16449
0.228577
0.248413
0.163269
0.0143433
-0.113525
-0.209045
-0.216064
-0.221863
-0.220947
-0.21759
-0.219421
-0.206909
-0.137024
0.0219727
0.133667
0.138245
0.154419
0.1651
0.139465
0.13031
0.210876
0.140076
0.0662231
0.0332642
-0.0234985
-0.0146484
0.0262451
-0.0286865
-0.0918579
-0.0869751
-0.0378418
0.0280762
0.0439453
-0.0250244
-0.128479
-0.201416
-0.177002
-0.140686
-0.0720215
-0.00823975
-0.015564
-0.0317383
-0.0494385
-0.0552368
-0.0579834
-0.0527954
0
0.0317383
0.0622559
0.0939941
0.12085
0.103455
0.0265503
-0.0189209
-0.0314331
-0.0845337
-0.118103
-0.151062
-0.148315
-0.112915
-0.0778198
-0.0357056
-0.0299072
-0.0259399
-0.0106812
0.0299072
0.039978
0.0561523
0.0656128
0.0537109
0.03479
0.0244141
0.0500488
0.0845337
0.110474
0.13092
0.138855
0.0909424
-0.0231934
-0.13855
-0.170593
-0.143433
-0.119324
-0.110779
-0.09552
-0.0756836
-0.0982666
-0.141907
-0.155945
-0.132446
-0.0714111
0
0.0949097
0.214539
0.261536
0.250549
0.206909
0.0872803
-0.0357056
-0.14679
-0.272827
-0.341797
-0.209351
-0.0741577
-0.0646973
-0.00213623
0.0973511
0.179749
0.247192
0.273743
0.270386
0.253296
0.153198
0.0125122
-0.090332
-0.0961304
-0.0552368
-0.00366211
0.045166
0.0485229
0.0125122
-0.00274658
-0.00579834
0.00518799
0.101013
0.220947
0.298767
0.331726
0.272217
0.246582
0.241089
0.180664
0.105591
0.039978
-0.0448608
-0.101624
-0.0619507
-0.00640869
0.0204468
0.032959
0.0222778
-0.0296021
-0.10498
-0.127563
-0.123596
-0.163269
-0.229187
-0.264587
-0.231018
-0.176392
-0.0912476
-0.0152588
0.0582886
0.0686646
0.0463867
0.0158691
0.00640869
0.0222778
0.0521851
0.0634766
0.0836182
0.108643
0.113525
0.0997925
0.0958252
0.0991821
0.0704956
0.0271606
0.00732422
-0.00244141
-0.0509644
-0.093689
-0.0808716
-0.0256348
0.0485229
0.218506
0.296936
0.211487
0.123596
0.158386
0.296936
0.448914
0.490112
0.367126
0.173035
0.0149536
-0.0552368
0.0109863
0.106506
0.144958
0.11322
0.106812
0.10437
0.0854492
0.0146484
-0.0961304
-0.160828
-0.151978
-0.102539
-0.0750732
-0.0643921
-0.045166
-0.0726318
-0.085144
-0.0634766
0.0265503
0.0897217
0.121765
0.0823975
0.00274658
0.00213623
0.0216675
0.0704956
0.0845337
0.0521851
0.0228882
0.0289917
0.0213623
-0.0140381
-0.0088501
0.103455
0.219727
0.289612
0.304871
0.216675
0.0668335
-0.0567627
-0.108032
-0.0842285
0.0119019
0.266418
0.495605
0.565491
0.534973
0.419006
0.138245
-0.022583
0.088501
0.248108
0.301514
0.301208
0.274048
0.160522
-0.0149536
-0.0820923
-0.116272
-0.155334
-0.240173
-0.224304
-0.216675
-0.139465
-0.109558
-0.144043
-0.178833
-0.17334
-0.0866699
0.0314331
0.0680542
0.114746
0.141296
0.117188
0.0869751
-0.00274658
-0.121155
-0.161743
-0.121155
0.0354004
0.198975
0.267639
0.197144
0.0958252
0.0418091
-0.00305176
-0.0790405
-0.166931
-0.201111
-0.185852
-0.121765
-0.0839233
-0.0756836
-0.0778198
-0.126648
-0.176392
-0.159607
-0.112915
-0.0619507
0.00213623
0.0228882
0.0131226
0.00274658
-0.0088501
0.00244141
0.010376
-0.0274658
-0.0805664
-0.0875854
-0.0759888
-0.0680542
-0.062561
-0.00457764
0.0241089
0.0338745
0.0198364
-0.0183105
-0.0692749
-0.0970459
-0.09552
-0.0601196
0.0149536
0.0863647
0.169983
0.260925
0.3479
0.340881
0.241394
0.168762
0.0500488
-0.0909424
-0.198975
-0.184937
0
0.101624
0.0616455
0.0253296
-0.0180054
-0.085144
-0.115662
-0.0576782
0.0140381
0.0308228
0.0338745
-0.0146484
-0.0854492
-0.125732
-0.115356
-0.0930786
-0.0860596
-0.0842285
-0.106506
-0.100708
-0.0863647
-0.169983
-0.278625
-0.339966
-0.299072
-0.201111
-0.0619507
0.102844
0.204773
0.215454
0.120239
0.0106812
-0.0350952
0.0134277
0.115051
0.184021
0.228271
0.272522
0.19928
0.0430298
-0.00549316
0.0262451
-0.0601196
-0.141907
-0.194702
-0.204163
-0.156555
-0.0787354
0.00579834
0.065918
0.0628662
0.0521851
0.0457764
0.0256348
-0.00762939
-0.00457764
0.0164795
-0.00579834
-0.0521851
-0.0845337
-0.10376
-0.10376
-0.090332
-0.0714111
-0.055542
-0.0772095
-0.13855
-0.209045
-0.220337
-0.158997
-0.0634766
0.050354
0.0759888
0.0485229
0.0323486
0.00823975
0.0457764
0.163879
0.235596
0.302734
0.379333
0.328369
0.111084
-0.0134277
-0.045166
-0.127258
-0.191956
-0.175171
-0.123901
-0.0814819
-0.0378418
-0.00823975
0.0164795
0.0180054
0.0308228
0.017395
-0.00274658
-0.0692749
-0.177002
-0.257874
-0.262451
-0.143738
0.0402832
0.223083
0.328979
0.341187
0.202332
0.0326538
-0.0738525
-0.118103
-0.135193
-0.161133
-0.173035
-0.18158
-0.139465
-0.110168
-0.0909424
-0.0204468
0.0375366
0.0494385
0.00274658
-0.0314331
-0.105286
-0.168762
-0.202637
-0.176392
-0.17395
-0.169067
-0.14679
-0.0772095
-0.020752
-0.00427246
-0.0231934
-0.0610352
-0.0653076
-0.0738525
-0.0634766
-0.0415039
-0.0259399
-0.0115967
-0.00976562
-0.0119019
-0.0198364
-0.0222778
-0.0170898
-0.0253296
-0.0393677
-0.0369263
-0.0378418
-0.0393677
-0.0289917
-0.0448608
-0.0527954
-0.0732422
-0.0741577
-0.0564575
-0.0411987
0.0231934
0.0524902
0.0604248
0.0689697
0.107727
0.098877
0.0982666
0.0424194
0.00915527
-0.0198364
-0.062561
-0.0775146
-0.072937
-0.0704956
-0.0787354
-0.0588989
-0.0308228
-0.00671387
-0.0131226
0.0131226
0.110474
0.172729
0.1474
0.12146
0.128784
0.153198
0.151062
0.107727
0.126648
0.106201
0.0485229
0.0631714
0.135803
0.180969
0.195923
0.209656
0.218201
0.166321
0.0875854
0.0613403
-0.00518799
-0.195618
-0.228577
-0.157471
-0.0311279
0.0946045
0.189514
0.134888
-0.00762939
-0.13092
-0.229187
-0.288391
-0.314331
-0.187683
-0.0424194
0.0634766
0.0619507
-0.0100708
-0.10376
-0.115356
-0.0827026
-0.0561523
-0.0613403
-0.0796509
-0.0680542
-0.0579834
-0.0616455
-0.0564575
-0.0579834
-0.0613403
-0.039978
-0.0320435
-0.0210571
-0.0183105
-0.0183105
-0.0161743
-0.010376
-0.0125122
-0.022583
-0.0112915
-0.0125122
-0.0112915
-0.00793457
-0.00762939
-0.0170898
-0.0271606
-0.0292969
-0.0457764
-0.0646973
-0.0283813
0.0360107
0.0686646
0.0457764
0.0167847
-0.00274658
0.00274658
0.0201416
-0.0363159
-0.109558
-0.174561
-0.2005
-0.183105
-0.0796509
0.0720215
0.230713
0.359802
0.365601
0.300903
0.237122
0.13031
0.0210571
0.0012207
0.0692749
0.0802612
0.0482178
0.0146484
-0.0509644
-0.0799561
-0.038147
0.0765991
0.173645
0.224609
0.273438
0.243835
0.111084
0.0228882
0.0500488
0.0582886
0.0595093
0.0756836
0.0485229
0.0204468
-0.0186157
-0.0897217
-0.19989
-0.246277
-0.231018
-0.213318
-0.171509
-0.093689
-0.0579834
-0.0753784
-0.0942993
-0.032959
0.0564575
0.119934
0.133972
0.106201
0.0250244
-0.0564575
-0.11322
-0.131836
-0.131226
-0.14679
-0.152283
-0.125427
-0.0396729
0.10498
0.217896
0.263367
0.204163
0.114441
-0.00274658
-0.123901
-0.15686
-0.10498
-0.017395
0.0210571
0.0262451
-0.0405884
-0.0436401
-0.00488281
0.00640869
0.0274658
0.0262451
0.0152588
0.0106812
0.0305176
0.072937
0.0692749
0
-0.043335
-0.0012207
0.0640869
0.130005
0.187683
0.119629
-0.0393677
-0.183716
-0.267334
-0.261536
-0.139771
0.071106
0.181274
0.229492
0.216064
0.114441
0.00976562
-0.017395
-0.119629
-0.133667
-0.0933838
-0.050354
-0.010376
0.0430298
0.0927734
0.0521851
-0.0100708
-0.0808716
-0.136108
-0.140381
-0.0921631
-0.045166
-0.0479126
-0.039978
-0.0357056
-0.0256348
-0.0222778
-0.0119019
0.00457764
0.0192261
0.0265503
0.00946045
0.00488281
-0.00305176
-0.00701904
-0.00915527
0.000610352
0.0131226
0.0115967
0.0219727
0.0671387
0.126648
0.159302
0.176697
0.177917
0.148315
0.10437
0.0814819
0.0332642
0.0177002
0.00305176
0
-0.106812
-0.14679
-0.110474
0.0115967
0.187073
0.354309
0.537415
0.770264
0.842896
0.582886
0.186462
-0.0961304
-0.273438
-0.39856
-0.360107
-0.182495
-0.0869751
-0.0619507
-0.0997925
-0.1297
-0.122681
-0.142212
-0.132141
-0.107727
-0.0839233
-0.050354
0.0180054
0.0463867
0.0531006
0.0439453
0.00793457
-0.0125122
-0.0497437
-0.0222778
0.0167847
0.128174
0.130615
0.0994873
-0.0820923
-0.244141
-0.19043
-0.0723267
-0.0460815
-0.0100708
0.0216675
0.03479
0.0143433
-0.0497437
-0.108948
-0.104065
-0.0808716
-0.0585938
-0.0576782
-0.050354
-0.0506592
-0.0408936
-0.0320435
-0.0375366
-0.0308228
-0.0283813
-0.0109863
-0.012207
-0.0161743
-0.0164795
-0.0131226
-0.0149536
-0.0180054
-0.00274658
-0.00366211
0.00183105
0.0115967
0.0128174
0.010376
0.00274658
0.000915527
0.00213623
0
-0.00518799
0.00701904
0.0158691
0.0146484
0.0167847
0.0119019
0.00823975
0.00762939
-0.00549316
0.00579834
0.00183105
0.00671387
-0.00793457
-0.0125122
0.0247192
0.102234
0.213318
0.375061
0.496521
0.552063
0.505066
0.37384
0.143433
-0.072937
-0.198059
-0.132751
-0.0509644
0.0305176
0.055542
0.0750732
0.00946045
0.0305176
0.0390625
0.0192261
-0.00427246
-0.00823975
-0.0308228
-0.0900269
-0.0967407
-0.0790405
-0.169067
-0.234985
-0.157776
-0.0463867
0.0354004
0.138245
0.0985718
-0.0527954
-0.0820923
-0.0604248
-0.0787354
-0.0772095
-0.0601196
-0.0485229
-0.0588989
-0.0640869
-0.0588989
-0.0125122
0.0228882
0.0375366
0.0408936
0.055542
0.0662231
0.0939941
0.116577
0.0991821
0.00366211
-0.0445557
-0.0784302
-0.0643921
-0.0311279
-0.0268555
0.00427246
0
-0.010376
-0.0274658
-0.0152588
-0.0134277
-0.0402832
-0.0448608
-0.039978
-0.0161743
-0.00396729
-0.00213623
-0.00305176
-0.00701904
-0.015564
-0.0302124
-0.0262451
-0.0210571
-0.0158691
-0.0128174
0.00427246
0.00396729
0.00244141
-0.00671387
-0.0189209
-0.0210571
-0.0384521
-0.0552368
-0.0344849
0.00640869
0.0866699
0.123901
0.156555
0.161133
0.164795
0.188293
0.210571
0.232544
0.301208
0.328369
0.267029
0.10376
-0.0445557
-0.107117
-0.127563
-0.117188
-0.0930786
-0.155334
-0.179749
-0.0961304
0.0146484
0.0701904
0.0897217
0.0357056
-0.101318
-0.211487
-0.282288
-0.317383
-0.229492
-0.0915527
-0.0146484
0.0253296
0.0653076
0.0891113
0.116577
0.153503
0.155945
0.100098
0.0314331
0.012207
-0.00213623
-0.00488281
0.0463867
0.127563
0.16449
0.143433
0.0979614
0.0576782
0.0344849
-0.0314331
-0.0906372
-0.112915
-0.0900269
-0.0634766
-0.027771
0.00305176
0.0131226
-0.00793457
-0.0469971
-0.0390625
-0.0332642
0.0234985
0.10498
0.195007
0.210876
0.17395
0.165405
0.150757
0.122375
0.0820923
0.00823975
-0.0985718
-0.145569
-0.090332
-0.0946045
-0.107117
-0.116577
-0.0686646
-0.0817871
-0.127258
-0.112
-0.0485229
0.0119019
0.0241089
-0.00579834
-0.0827026
-0.09552
-0.0222778
0.0909424
0.160522
0.229797
0.275574
0.232849
0.223083
0.185242
0.0601196
-0.0863647
-0.1474
-0.161133
-0.150452
-0.121155
-0.0686646
-0.0305176
-0.00396729
0.0253296
0
-0.121765
-0.202026
-0.229492
-0.230713
-0.22583
-0.187378
-0.0918579
-0.00244141
0.0369263
0.0271606
0.000305176
-0.0427246
-0.0723267
-0.0802612
-0.0692749
-0.0463867
-0.0402832
-0.0479126
-0.0570679
-0.0646973
-0.0723267
-0.072937
-0.0497437
0.00823975
0.0619507
0.0610352
0.0436401
0.0344849
0.0378418
0.0326538
0.00671387
0.00915527
0.0158691
-0.0109863
-0.00152588
-0.0167847
-0.0305176
-0.0180054
0.0466919
0.178833
0.331726
0.448303
0.504456
0.401611
0.112915
-0.163879
-0.342407
-0.393372
-0.338135
-0.230713
-0.155029
-0.0549316
0.0863647
0.26001
0.39032
0.448914
0.416565
0.295715
0.141296
-0.108948
-0.22522
-0.238342
-0.24231
-0.209351
-0.149536
-0.0698853
0.0109863
0.0454712
0.0674438
0.0515747
-0.06073
-0.0704956
-0.0363159
-0.00274658
0.050354
0.107117
0.0915527
0.0357056
0.00213623
-0.0390625
-0.104065
-0.160217
-0.16449
-0.0952148
0.00305176
-0.010376
-0.0753784
-0.103455
-0.100708
-0.0357056
0.0289917
0.0619507
0.0500488
-0.00701904
-0.0637817
-0.0671387
-0.0497437
-0.0561523
-0.0613403
-0.110168
-0.161133
-0.167236
-0.100403
0.00213623
0.0402832
0.121765
0.257568
0.325623
0.276489
0.246277
0.212097
0.0875854
-0.0976562
-0.122986
-0.0424194
-0.0192261
-0.0234985
0.00335693
0.020752
0.0146484
-0.0088501
-0.0991821
-0.160217
-0.170288
-0.161133
-0.0894165
-0.067749
-0.127258
-0.137024
-0.117493
-0.0561523
-0.0100708
0.0665283
0.0769043
0.0341797
-0.0143433
-0.0222778
-0.0134277
-0.0109863
-0.0195312
-0.0256348
-0.0189209
-0.00335693
0.0012207
-0.00549316
-0.0292969
-0.0134277
-0.0216675
-0.0332642
-0.0415039
-0.0546265
-0.0515747
-0.0198364
0.0741577
0.203552
0.301208
0.352783
0.309753
0.210266
0.118408
0.0390625
0.00701904
0.0369263
0.0894165
0.0842285
0.012207
-0.085144
-0.14679
-0.223999
-0.207214
-0.027771
0.172424
0.25238
0.234985
0.135193
0.0109863
-0.122986
-0.193176
-0.163879
-0.117493
-0.106506
-0.0982666
-0.0653076
-0.0491333
-0.0726318
-0.0888062
-0.0592041
0.0112915
0.039978
0.111389
0.172729
0.198669
0.168762
0.111694
0.0735474
-0.00823975
-0.0823975
-0.106812
-0.0869751
-0.0546265
-0.0289917
-0.0128174
-0.0134277
-0.010376
-0.00762939
0.000305176
-0.00640869
-0.0143433
-0.0195312
-0.0241089
-0.0244141
-0.00946045
0.00518799
0.0158691
0.0308228
0.0216675
-0.0228882
-0.0588989
-0.0888062
-0.108337
-0.0918579
-0.0326538
0.0485229
0.0769043
0.125122
0.152283
0.144348
0.127563
0.161133
0.210266
0.25116
0.333862
0.400085
0.331421
0.12207
-0.118103
-0.185242
-0.170898
-0.140686
-0.108643
-0.0860596
-0.0778198
-0.06073
-0.020752
