2.04407
1.29547
-0.325928
-1.22955
-1.66595
-1.87836
-1.97327
-2.04742
-2.08496
-2.09869
-2.10236
-2.11609
-2.11761
-2.12494
-2.12128
-2.12067
-2.11517
-2.10541
-2.10236
-2.09412
-2.08466
-2.0697
-2.06207
-2.04956
-2.03583
-2.02179
-2.02179
-2.00287
-1.98944
-1.97571
-1.95587
-1.94153
-1.92596
-1.9162
-1.90247
-1.8924
-1.87592
-1.87134
-1.86066
-1.84845
-1.83655
-1.82373
-1.80664
-1.80115
-1.78467
-1.77765
-1.77032
-1.75354
-1.74286
-1.72882
-1.71173
-1.70532
-1.69373
-1.6748
-1.66809
-1.6571
-1.64581
-1.63696
-1.63239
-1.61255
-1.6095
-1.59302
-1.58173
-1.56616
-1.56647
-1.5509
-1.54175
-1.53412
-1.52039
-1.52435
-1.51001
-1.49933
-1.49567
-1.47949
-0.297241
1.15997
1.91895
2.27509
2.45239
2.54211
2.58636
2.61841
2.63397
2.64679
2.65381
2.64618
2.64801
2.63855
2.62268
2.62512
2.60345
2.59613
2.58148
2.56958
2.55646
2.53723
2.52197
2.50366
2.49115
2.46429
2.45178
2.43347
2.41364
2.40112
2.39105
2.37122
2.35413
2.33948
2.32147
2.30194
2.28424
2.26593
2.26349
2.24701
2.23236
2.22137
2.20428
2.18658
2.16827
2.146
2.13684
2.117
1.06781
-0.444336
-1.25153
-1.63727
-1.83319
-1.92963
-1.99005
-2.01538
-2.03339
-2.04895
-2.05353
-2.052
-2.05261
-2.04834
-2.04834
-2.0462
-2.04132
-2.03064
-2.02515
-2.02057
-2.00745
-1.99799
-1.98242
-1.9696
-1.9574
-1.94977
-1.92688
-1.93665
-1.91193
-1.89178
-1.88507
-1.87286
-1.85852
-1.84021
-1.8277
-1.8158
-1.80298
-1.79565
-1.78741
-1.77063
-1.76178
-1.75018
-1.74194
-1.72363
-1.71539
-1.698
-1.68304
-1.68732
-1.66595
-1.65253
-1.6449
-1.63239
-1.62231
-1.61407
-1.60095
-1.58936
-1.57379
-1.57379
-1.56647
-1.55945
-1.55304
-1.53687
-1.53107
-1.52069
-1.51031
-1.49597
-1.48193
-1.47491
-1.46759
-1.45782
-1.44257
-1.43524
-1.42975
-1.41724
-1.39893
-1.39465
-1.38947
-1.38184
-1.37543
-1.38794
-1.35742
-1.35773
-0.360413
1.17157
1.99493
2.39044
2.57721
2.67273
2.71362
2.742
2.7594
2.76611
2.76276
2.77191
2.76398
2.75696
2.74902
2.73529
2.72034
2.70844
2.70172
2.68433
2.67151
2.64832
2.63916
2.62451
2.6062
2.58759
2.5769
2.55737
2.53326
2.52319
2.5058
2.49512
2.47772
2.46002
2.44324
2.42035
2.40143
2.38434
2.37213
2.35809
2.33826
2.31659
2.30316
2.29126
2.27448
2.25616
2.25281
2.23083
2.21619
2.20062
2.1936
2.17133
2.15973
2.15057
2.13684
2.12524
2.10785
0.844421
-0.596313
-1.34003
-1.69373
-1.86829
-1.94977
-1.99921
-2.02759
-2.05109
-2.06329
-2.06696
-2.07367
-2.07245
-2.07062
-2.06268
-2.06207
-2.05383
-2.04468
-2.03613
-2.02393
-2.01752
-2.00104
-1.9928
-1.9928
-1.97327
-1.9632
-1.94153
-1.92963
-1.91803
-1.90186
-1.89423
-1.88019
-1.87195
-1.85577
-1.84235
-1.82556
-1.81
-1.80145
-1.78955
-1.77521
-1.76788
-1.75568
-1.75446
-1.72363
-1.7157
-1.70807
-1.69312
-1.67725
-1.66534
-1.66046
-1.64642
-1.63239
-1.62415
-1.61835
-1.60614
-1.59454
-1.57837
-1.57318
-1.56464
-1.54633
-1.53809
-1.52832
-1.53564
-1.51855
-1.50391
-1.49261
-1.48895
-1.48102
-1.4679
-1.45721
-1.44653
-1.43524
-1.43372
-1.42212
-1.41266
-1.40656
-1.39679
-1.39069
-1.37909
-1.36841
-1.36017
-1.35406
-1.35345
-1.31622
-1.32965
-1.31927
-1.30951
-1.3028
-1.29272
-1.28418
-1.27625
-1.18225
0.515442
1.69861
2.28485
2.56012
2.69348
2.75848
2.79877
2.82471
2.8302
2.83478
2.83173
2.83295
2.82806
2.81921
2.81403
2.80518
2.78778
2.77802
2.76001
2.74261
2.73376
2.71027
2.69257
2.68005
2.65869
2.64008
2.62543
2.61261
2.60162
2.58423
2.56897
2.5473
2.52777
2.51068
2.49481
2.47467
2.46033
2.44598
2.43011
2.41913
2.40143
2.38861
2.36877
2.34009
2.33368
2.31171
2.29614
2.28546
2.26562
2.25555
2.2403
2.22351
2.20398
2.18658
2.1756
2.16187
2.14813
2.13745
2.12402
2.11121
2.09747
2.08038
2.0694
2.05566
2.04437
2.03217
2.02454
2.00806
1.99677
1.99249
1.97662
1.96655
1.95709
1.94763
1.93268
1.92108
1.90094
1.8924
1.87592
1.86493
1.85669
1.84418
1.84113
1.81305
1.80084
1.78711
1.77338
1.75995
1.75018
1.74164
1.72821
1.72119
1.70624
1.7038
1.68518
1.67053
1.66565
1.65039
1.64215
1.63239
1.62323
1.60919
1.5979
1.57867
1.57013
1.5564
1.54114
1.52985
1.52313
1.51978
1.51154
1.49963
1.48926
1.47491
1.45874
1.45721
1.44348
1.43951
1.42303
1.42181
1.41205
1.40442
1.3916
1.37665
1.36597
1.35925
1.35345
1.34521
1.33575
1.3324
1.3205
1.30219
1.29333
1.28448
1.27747
1.26465
1.24939
1.24481
1.23322
1.22162
1.21063
1.20453
1.19171
1.17889
1.17371
1.16302
1.15753
1.14838
1.14227
1.13739
1.12701
1.11877
1.09985
1.10168
1.07147
1.07697
1.07483
1.06415
1.04919
1.04187
1.03668
1.02783
1.0202
1.00891
0.995483
0.985718
0.983276
0.977783
0.971985
0.960388
0.95459
0.951233
0.941772
0.933228
0.924988
0.912476
0.904541
0.894165
0.89447
0.880737
0.872803
0.873413
0.866699
0.85968
0.85907
0.84259
0.827942
0.8255
0.813293
0.809631
0.801086
0.800476
0.788269
0.780029
0.776062
0.761414
0.755615
0.740662
0.740662
0.734558
0.727234
0.723572
0.723877
0.709839
0.711975
0.69519
0.688782
0.680847
0.66803
0.663147
0.662842
0.655518
0.647583
0.639954
0.628662
0.630798
0.617676
0.60791
0.611877
0.602722
0.592957
0.585632
0.578918
0.577393
0.565186
0.557556
0.549927
0.53894
0.534363
0.530701
0.526123
0.523071
0.519409
0.513
0.509033
0.504761
0.498657
0.487671
0.481873
0.480652
0.477295
0.467224
0.465393
0.457764
0.447693
0.438538
0.429993
0.423889
0.418396
0.415039
0.411987
0.411682
0.403748
0.398865
0.394287
0.394287
0.385437
0.379639
0.368958
0.362549
0.350037
0.345154
0.342407
0.343018
0.335693
0.325623
0.319519
0.30426
0.309143
0.302429
0.299072
0.29541
0.287476
0.289307
0.285034
0.282288
0.283203
0.281067
0.266724
0.263977
0.262451
0.254517
0.252991
0.246582
0.243225
0.238037
0.228882
0.221558
0.220032
0.21698
0.212097
0.210266
0.204163
0.200195
0.203247
0.192566
0.190125
0.12207
0.171814
0.170288
0.162964
0.153198
0.151672
0.152588
0.150452
0.140991
0.141296
0.13031
0.122681
0.128479
0.123291
0.116272
0.103455
0.109253
0.101013
0.0997925
0.0970459
0.0958252
0.0912476
0.0869751
0.0802612
0.0735474
0.0692749
0.0637817
0.0656128
0.0650024
0.0558472
0.0512695
0.0424194
0.0402832
0.0396729
0.0344849
0.0274658
0.0320435
0.0308228
0.0271606
0.0238037
0.0216675
0.0137329
0.00518799
0.00946045
0.00457764
-0.00671387
0
-0.00701904
-0.0088501
-0.0100708
-0.0134277
-0.0210571
-0.0219727
-0.0204468
-0.0296021
-0.0369263
-0.0354004
-0.0396729
-0.0424194
-0.0424194
-0.0491333
-0.0656128
-0.0546265
-0.0592041
-0.0610352
-0.0631714
-0.0686646
-0.0750732
-0.0805664
-0.0827026
-0.0790405
-0.0860596
-0.0842285
-0.0906372
-0.098877
-0.0939941
-0.098877
-0.101318
-0.105591
-0.100708
-0.10498
-0.107422
-0.114136
-0.115051
-0.119324
-0.112915
-0.125427
-0.136108
-0.137024
-0.132751
-0.139771
-0.13855
-0.139771
-0.141907
-0.147095
-0.149231
-0.150452
-0.15564
-0.156555
-0.15686
-0.158386
-0.161133
-0.167542
-0.169067
-0.176392
-0.177917
-0.179443
-0.184631
-0.18219
-0.183716
-0.185242
-0.187683
-0.194397
-0.19928
-0.19928
-0.205994
-0.202942
-0.205078
-0.20874
-0.213318
-0.212097
-0.211182
-0.214233
-0.212097
-0.223694
-0.224915
-0.216064
-0.226746
-0.231628
-0.230103
-0.231323
-0.231323
-0.231628
-0.23407
-0.245972
-0.239258
-0.238953
-0.238647
-0.242004
-0.244141
-0.252075
-0.248108
-0.245056
-0.259399
-0.250549
-0.259705
-0.263367
-0.265808
-0.266724
-0.270996
-0.26886
-0.269775
-0.271606
-0.277405
-0.275879
-0.280151
-0.277405
-0.283508
-0.281982
-0.284119
-0.289612
-0.288086
-0.291138
-0.285645
-0.300293
-0.301208
-0.301819
-0.310364
-0.302734
-0.305481
-0.304871
-0.302124
-0.30304
-0.309143
-0.312805
-0.315552
-0.315247
-0.313416
-0.316467
-0.314636
-0.321045
-0.316467
-0.323792
-0.320435
-0.326233
-0.324097
-0.326843
-0.331421
-0.333557
-0.335388
-0.339661
-0.33844
-0.333252
-0.330811
-0.334167
-0.330505
-0.323181
-0.332336
-0.325317
-0.335999
-0.342712
-0.344543
-0.352478
-0.342712
-0.345764
-0.348206
-0.346985
-0.351257
-0.35614
-0.357971
-0.357361
-0.357666
-0.35614
-0.360413
-0.360413
-0.361328
-0.365295
-0.36377
-0.362549
-0.366211
-0.37262
-0.372314
-0.371399
-0.375671
-0.37384
-0.392151
-0.379944
-0.379639
-0.384216
-0.384827
-0.388184
-0.382996
-0.377502
-0.387878
-0.389099
-0.389099
-0.396729
-0.397339
-0.393066
-0.398865
-0.391846
-0.399475
-0.397644
-0.399475
-0.396423
-0.399475
-0.418091
-0.400391
-0.394592
-0.395813
-0.398865
-0.406189
-0.39917
-0.400696
-0.403442
-0.406189
-0.402527
-0.410767
-0.412598
-0.40863
-0.408936
-0.409851
-0.408936
-0.40741
-0.410461
-0.402832
-0.409241
-0.414124
-0.411377
-0.413513
-0.411682
-0.413513
-0.414734
-0.413208
-0.411682
-0.416565
-0.414734
-0.422974
-0.419312
-0.423889
-0.420837
-0.418091
-0.418091
-0.425415
-0.425415
-0.420837
-0.429993
-0.428772
-0.426331
-0.432129
-0.43335
-0.430908
-0.431213
-0.434265
-0.431213
-0.434265
-0.435486
-0.440979
-0.447388
-0.44342
-0.437622
-0.435181
-0.436096
-0.43335
-0.428467
-0.430298
-0.434875
-0.437927
-0.439758
-0.441589
-0.436707
-0.440369
-0.436096
-0.437317
-0.437927
-0.437927
-0.435181
-0.432739
-0.432739
-0.432739
-0.444336
-0.441284
-0.443726
-0.440674
-0.445557
-0.440063
-0.436707
-0.437927
-0.481262
-0.439453
-0.441895
-0.444641
-0.450134
-0.449524
-0.439453
-0.444336
-0.4422
-0.445862
-0.440369
-0.4422
-0.440369
-0.4422
-0.443115
-0.447083
-0.449829
-0.441589
-0.440674
-0.440369
-0.443726
-0.453491
-0.445557
-0.453186
-0.444336
-0.453186
-0.444641
-0.444641
-0.445862
-0.448303
-0.448303
-0.448303
-0.455627
-0.456848
-0.457153
-0.45929
-0.455017
-0.447998
-0.450439
-0.451355
-0.452271
-0.452881
-0.450439
-0.455627
-0.459595
-0.45929
-0.4599
-0.455322
-0.450439
-0.455627
-0.460815
-0.450134
-0.455322
-0.455933
-0.458069
-0.454407
-0.455933
-0.46051
-0.455322
-0.456848
-0.455933
-0.457458
-0.46051
-0.458069
-0.454712
-0.459595
-0.45929
-0.458069
-0.45166
-0.452881
-0.455017
-0.450745
-0.454102
-0.45166
-0.449829
-0.451965
-0.448608
-0.449524
-0.451965
-0.448914
-0.452576
-0.447388
-0.408936
-0.454712
-0.454407
-0.455322
-0.452881
-0.452271
-0.454102
-0.45105
-0.446777
-0.453186
-0.451965
-0.46051
-0.457153
-0.449829
-0.45929
-0.453796
-0.455933
-0.454407
-0.457764
-0.458069
-0.457153
-0.454407
-0.453491
-0.455933
-0.45166
-0.453491
-0.446167
-0.442505
-0.447388
-0.448303
-0.445862
-0.450745
-0.448608
-0.447998
-0.445251
-0.447388
-0.450439
-0.448303
-0.445251
-0.448303
-0.446167
-0.437012
-0.4422
-0.445862
-0.444946
-0.439453
-0.445557
-0.440979
-0.441589
-0.444031
-0.44281
-0.444641
-0.438538
-0.450439
-0.444641
-0.448303
-0.448914
-0.445862
-0.441589
-0.446167
-0.44342
-0.445557
-0.435791
-0.445862
-0.441895
-0.445251
-0.440674
-0.439148
-0.439758
-0.430298
-0.437622
-0.435791
-0.438538
-0.428162
-0.429993
-0.440979
-0.440063
-0.441589
-0.444031
-0.502319
-2.20581
-3.38501
-3.9682
-4.24164
-4.37317
-4.43817
-4.47174
-4.47662
-4.47174
-4.47937
-4.46777
-4.45068
-4.44092
-4.42627
-4.40521
-4.38934
-4.36798
-4.34906
-4.32343
-4.30237
-4.2746
-4.25201
-4.2337
-4.21173
-4.19617
-4.15527
-4.1394
-4.12079
-4.08264
-4.06067
-4.03717
-4.01001
-3.99078
-3.96973
-3.94287
-3.9151
-3.88733
-3.86749
-3.83911
-3.81866
-3.78876
-3.76709
-3.74329
-3.71826
-3.69873
-3.68073
-3.65753
-3.63251
-3.61206
-3.59589
-3.57086
-3.5495
-3.52997
-3.50861
-3.48938
-3.46802
-3.44299
-3.42316
-3.39966
-3.38196
-3.36121
-3.34045
-3.31787
-3.29437
-3.27454
-3.26233
-3.23761
-3.22296
-3.20221
-3.17963
-3.16559
-3.1424
-3.12927
-3.10852
-3.08746
-3.06976
-3.05328
-3.03497
-3.02155
-3.00385
-2.98553
-2.97089
-2.95135
-2.92999
-2.91412
-2.37518
-0.679016
0.30304
0.789795
1.02509
1.1496
1.21826
1.26129
1.28845
1.29852
1.31287
1.32172
1.32599
1.32965
1.33087
1.33667
1.33087
1.32599
1.31805
1.30432
1.3028
1.29211
1.29028
1.28174
1.27075
1.26648
1.26038
1.25275
1.24603
1.23627
1.23077
1.21948
1.2088
1.19812
1.19202
1.18439
1.17218
1.16821
1.15753
1.15845
1.1377
1.13159
1.11908
1.11603
1.10504
1.10626
1.10291
1.08978
1.08276
1.0788
1.06598
1.06171
1.05316
1.05225
1.0434
1.03363
1.02875
1.02356
1.02142
1.0141
1.00128
1.0022
0.994263
0.984192
0.982361
0.976257
0.962524
0.96344
0.960999
0.955811
0.0772095
-1.49231
-2.34528
-2.75024
-2.95563
-3.04535
-3.09601
-3.11676
-3.13019
-3.13568
-3.13599
-3.13721
-3.13385
-3.12317
-3.11432
-3.09753
-3.08441
-3.06702
-3.04993
-3.02856
-3.01117
-3.00262
-2.9834
-2.96661
-2.94281
-2.92847
-2.90283
-2.883
-2.86346
-2.84698
-2.82013
-2.80457
-2.78046
-2.76855
-2.74872
-2.72491
-2.71149
-2.68524
-2.66144
-2.64771
-2.63702
-2.61902
-2.59613
-2.57904
-2.56348
-2.54272
-2.52563
-2.50031
-2.49054
-2.47345
-2.4585
-2.42828
-2.41364
-2.40356
-2.40021
-2.37061
-2.35474
-2.33521
-2.31598
-2.29584
-2.28271
-2.26013
-2.25189
-2.2406
-2.22321
-2.2049
-2.1933
-2.17743
-2.16156
-2.14874
-2.13165
-2.11945
-2.09564
-2.09106
-2.08038
-2.06146
-2.05292
-2.03186
-2.02209
-2.00531
-1.98761
-1.53412
0.167236
1.17859
1.67084
1.91071
2.02759
2.09503
2.13501
2.16309
2.18048
2.19177
2.19696
2.1933
2.18842
2.19604
2.19177
2.17957
2.17682
2.17499
2.15668
2.14447
2.13654
2.12189
2.10968
2.10114
2.09137
2.0813
2.06451
2.05566
2.03979
2.03461
2.01965
2.00165
1.98914
1.97327
1.96228
1.95374
1.94031
1.93573
1.92169
1.90826
1.89941
1.88446
1.87012
1.86249
1.85669
1.84814
1.83624
1.828
1.81824
1.80267
1.79504
1.77307
1.77979
1.75964
1.75537
1.73615
1.72729
1.71448
1.7041
1.7099
0.334473
-1.04797
-1.74835
-2.08313
-2.24365
-2.32758
-2.36969
-2.38983
-2.40356
-2.41486
-2.42279
-2.41852
-2.37457
-2.40723
-2.40387
-2.38647
-2.38678
-2.37061
-2.35962
-2.34528
-2.32697
-2.31232
-2.29797
-2.28607
-2.27051
-2.24976
-2.23907
-2.21252
-2.20123
-2.17957
-2.16522
-2.14111
-2.12921
-2.11334
-2.099
-2.07733
-2.0575
-2.05048
-2.03369
-2.01721
-1.99768
-1.98303
-1.97174
-1.95465
-1.92657
-1.922
-1.90796
-1.88873
-1.87469
-1.86188
-1.84723
-1.83594
-1.82404
-1.79779
-1.79016
-1.7807
-1.76544
-1.75293
-1.74469
-1.73065
-1.71295
-1.69739
-1.6922
-1.67358
-1.66595
-1.65436
-1.64215
-1.6333
-1.61591
-1.60217
-1.58722
-1.57867
-1.56464
-1.5564
-1.53931
-1.53259
-1.52069
-1.51276
-1.49689
-1.48193
-1.46393
-1.45142
-1.43677
0.107727
1.41327
2.06116
2.37061
2.52014
2.60315
2.64526
2.66907
2.68524
2.69989
2.7124
2.70477
2.69226
2.69257
2.68524
2.68219
2.67181
2.66724
2.65808
2.63824
2.62848
2.60895
2.59735
2.58148
2.56775
2.55188
2.53906
2.52777
2.50946
2.49573
2.48749
2.46429
2.44873
2.43347
2.42645
2.41241
2.39716
2.37701
2.37396
2.35962
2.33612
2.32056
2.30865
2.29858
2.28607
2.28058
2.26654
2.24976
2.2348
2.22778
2.21069
2.19849
2.1814
2.16614
2.15607
2.15027
2.13501
2.11639
2.10785
2.10052
0.919495
-0.53894
-1.30249
-1.67084
-1.85394
-1.93512
-1.99432
-2.02332
-2.03247
-2.04254
-2.04285
-2.04193
-2.03827
-2.04193
-2.03247
-2.02454
-2.01141
-1.99951
-1.99249
-1.98395
-1.96533
-1.95679
-1.94519
-1.93237
-1.9162
-1.90552
-1.88721
-1.87347
-1.85699
-1.84753
-1.83014
-1.8103
-1.79626
-1.78314
-1.76666
-1.75903
-1.75415
-1.73065
-1.71631
-1.6983
-1.68365
-1.66687
-1.65924
-1.64276
-1.633
-1.61896
-1.60828
-1.59363
-1.57898
-1.56372
-1.54877
-1.539
-1.52435
-1.51245
-1.50543
-1.48529
-1.47491
-1.46881
-1.45233
-1.44623
-1.4325
-1.42059
-1.4093
-1.39648
-1.38397
-1.37512
-1.36749
-1.35132
-1.34491
-1.33972
-1.32599
-1.30676
-1.29425
-1.28632
-1.27533
-1.27777
-1.26282
-1.25488
-1.24725
-1.2323
-0.273743
1.27838
2.10693
2.50244
2.69135
2.79175
2.85187
2.87506
2.89795
2.9068
2.91046
2.90802
2.90741
2.90009
2.89246
2.88025
2.86957
2.85461
2.84363
2.8299
2.81921
2.80792
2.79877
2.78229
2.7597
2.74963
2.73071
2.71515
2.7005
2.68738
2.6712
2.65747
2.63763
2.63031
2.60834
2.59003
2.57294
2.55829
2.54303
2.52777
2.51282
2.50305
2.49664
2.47253
2.46277
2.44568
2.43134
2.41547
2.40143
2.39014
2.38129
2.36115
2.35077
2.33856
2.3114
2.3111
2.2934
2.28119
2.27142
2.258
2.24243
1.49536
-0.133362
-1.02783
-1.47003
-1.67572
-1.78253
-1.85059
-1.87073
-1.89758
-1.89728
-1.91101
-1.92169
-1.91132
-1.90826
-1.90033
-1.89728
-1.88721
-1.88263
-1.87073
-1.86676
-1.84601
-1.83746
-1.82281
-1.80817
-1.78558
-1.78131
-1.76971
-1.75385
-1.74805
-1.72485
-1.71478
-1.70135
-1.68182
-1.67267
-1.65741
-1.64215
-1.62354
-1.61194
-1.60492
-1.5921
-1.57715
-1.56494
-1.55151
-1.54083
-1.52588
-1.50787
-1.49933
-1.49567
-1.48102
-1.4682
-1.45721
-1.44348
-1.42822
-1.41632
-1.39404
-1.39343
-1.38336
-1.36993
-1.36505
-1.35895
-1.34644
-1.3327
-1.32599
-1.31042
-1.30035
-1.29059
-1.28326
-1.2735
-1.2616
-1.25031
-1.23108
-1.2326
-1.22101
-1.21216
-1.20392
-1.19507
-1.185
-1.17615
-1.16669
-1.15448
-1.14532
-1.13556
-1.12579
-1.11115
-1.09955
-1.08734
0.177917
1.59546
2.32452
2.67548
2.8479
2.93671
2.98065
3.00385
3.01758
3.02948
3.02612
3.02795
3.02155
3.01575
3.00323
2.99713
2.9837
2.97729
2.9715
2.95105
2.93579
2.91931
2.90253
2.89307
2.86926
2.85431
2.83264
2.81982
2.80365
2.79175
2.77313
2.75543
2.73529
2.71545
2.7005
2.68646
2.66968
2.65198
2.63855
2.62512
2.60254
1.76636
0.168457
-0.705566
-1.12885
-1.33942
-1.44287
-1.50482
-1.53992
-1.5564
-1.57043
-1.57623
-1.58081
-1.58478
-1.59058
-1.58905
-1.58905
-1.57867
-1.57623
-1.56982
-1.55975
-1.54083
-1.53961
-1.52649
-1.51642
-1.50208
-1.48834
-1.47797
-1.46332
-1.45203
-1.4389
-1.44989
-1.41479
-1.41022
-1.39221
-1.38336
-1.36963
-1.35498
-1.34277
-1.32874
-1.31744
-1.30341
-1.28723
-1.27899
-1.27228
-1.26373
-1.25031
-1.2442
-1.23077
-1.21582
-1.20331
-1.19537
-1.18439
-1.17584
-1.16943
-1.16028
-1.15082
-1.14136
-1.1261
-1.1203
-1.10748
-1.10046
-1.09436
-1.07544
-1.07208
-1.06201
-1.05743
-1.04614
-1.03729
-1.02295
-1.01959
-1.008
-1.00128
-0.988159
-0.982971
-0.976868
-0.971069
-0.969543
-0.957642
-0.94635
-0.940247
-0.92926
-0.918579
-0.909424
-0.911255
-0.900879
-0.890808
-0.881653
-0.873108
-0.863037
-0.853271
-0.845032
-0.835876
-0.830688
-0.758057
0.936584
2.13013
2.71484
3.00659
3.14056
3.21075
3.25256
3.26843
3.27423
3.27728
3.27301
3.27118
3.26721
3.25897
3.24982
3.24402
3.23181
3.21747
3.22968
3.18512
3.17047
3.15247
3.13446
3.1192
3.10089
3.08319
3.06183
3.05145
3.03284
3.01727
2.99561
2.97821
2.96539
2.94037
2.92908
2.90497
2.89307
2.87781
2.8595
2.84027
2.82135
2.80365
2.78534
2.77252
2.75116
2.73529
2.724
2.71179
2.69928
2.67731
2.66479
2.64069
2.62604
2.61444
2.59857
2.58209
2.56958
2.55981
2.53754
2.52808
2.51068
2.50092
1.69983
0.0872803
-0.799866
-1.22894
-1.43982
-1.54633
-1.59454
-1.63208
-1.65466
-1.66687
-1.67542
-1.67603
-1.68182
-1.6803
-1.67603
-1.66779
-1.66138
-1.65466
-1.64948
-1.64337
-1.63727
-1.62811
-1.60767
-1.5979
-1.59058
-1.58112
-1.56708
-1.54907
-1.54053
-1.52679
-1.52222
-1.5036
-1.49139
-1.48346
-1.47156
-1.44897
-1.43372
-1.42456
-1.40961
-1.39923
-1.38977
-1.38275
-1.36871
-1.35284
-1.35162
-1.34003
-1.32416
-1.31104
-1.30768
-1.29822
-1.28265
-1.28357
-1.25946
-1.24451
-1.2381
-1.22986
-1.22223
-1.21246
-1.19476
-1.18561
-1.18439
-1.17401
-1.16577
-1.15143
-1.15387
-1.14441
-1.13342
-1.12213
-1.10748
-1.10718
-1.09985
-1.09039
-1.08063
-1.07117
-1.0611
-1.04797
-1.04187
-1.03699
-1.02539
-1.01532
-1.008
-1.0022
-0.997009
-0.982971
0.112305
1.59729
2.37946
2.76031
2.93793
3.03131
3.08075
3.09998
3.11554
3.1192
3.12408
3.12195
3.11401
3.10638
3.09998
3.09021
3.0777
3.06396
3.04901
3.0368
3.013
3.00293
2.98615
2.97119
2.95868
2.94067
2.91962
2.90131
2.88483
2.86102
2.84302
2.8244
2.80579
2.79419
2.7774
2.76093
2.74384
2.72308
2.71027
2.69897
2.67792
2.65533
2.64282
2.62573
2.60956
2.60162
2.57904
2.56165
2.54852
2.5354
2.51831
2.50366
2.48657
2.46796
2.45422
2.44568
2.42523
2.41882
2.21649
0.474548
-0.649719
-1.20697
-1.47522
-1.60614
-1.67938
-1.71875
-1.74164
-1.75262
-1.76941
-1.77643
-1.7691
-1.77124
-1.77521
-1.7688
-1.76361
-1.7569
-1.74469
-1.73645
-1.72302
-1.71143
-1.70532
-1.6864
-1.67664
-1.66626
-1.65771
-1.64337
-1.63116
-1.62292
-1.60339
-1.59576
-1.57593
-1.56525
-1.55273
-1.54175
-1.53046
-1.51947
-1.5033
-1.49017
-1.47827
-1.47064
-1.45782
-1.44196
-1.43555
-1.42639
-1.41754
-1.40198
-1.38916
-1.38184
-1.36932
-1.36688
-1.35406
-1.34796
-1.33514
-1.32843
-1.31927
-1.30676
-1.29425
-1.28418
-1.26984
-1.26587
-1.25793
-1.25031
-1.2384
-1.23199
-1.22589
-1.21979
-1.2027
-1.1911
-1.18622
-1.17676
-1.1676
-1.15784
-1.15112
-1.14166
-1.14319
-1.12549
-1.11816
-1.1084
-1.09894
-1.09314
-1.07941
-1.08246
-1.07086
-1.06079
-1.04767
-1.04553
-1.03729
-0.738525
0.985718
2.05292
2.58148
2.8241
2.95288
3.01453
3.05328
3.06152
3.07159
3.08075
3.07587
3.07495
3.06824
3.0603
3.04749
3.03497
3.02429
3.01025
2.99561
2.97974
2.9657
2.94739
2.93396
2.91382
2.89703
2.88147
2.86591
2.84363
2.8244
2.81006
2.79053
2.77649
2.75604
2.73438
2.71637
2.70264
2.68402
2.66693
2.64984
2.64221
2.62665
2.61108
2.59003
2.57324
2.55463
2.53937
2.52625
2.51099
2.49237
1.62384
0.0341797
-0.828247
-1.25031
-1.44897
-1.55731
-1.61957
-1.65131
-1.68152
-1.69006
-1.69739
-1.70105
-1.69891
-1.70074
-1.69037
-1.68976
-1.68335
-1.67542
-1.6684
-1.66077
-1.65375
-1.65009
-1.63971
-1.62506
-1.61621
-1.60522
-1.59454
-1.58325
-1.56036
-1.55487
-1.54907
-1.53503
-1.51978
-1.50421
-1.4975
-1.4856
-1.47614
-1.45844
-1.44989
-1.43097
-1.4328
-1.41724
-1.40778
-1.38611
-1.3736
-1.37238
-1.35834
-1.35773
-1.34308
-1.33423
-1.3327
-1.31439
-1.30585
-1.29608
-1.28204
-1.26923
-1.2619
-1.25488
-1.23901
-1.22589
-1.22223
-1.20819
-1.20453
-1.19751
-1.18347
-1.17249
-1.16821
-1.15936
-1.1554
-1.14624
-1.14044
-1.13464
-1.12305
-1.11389
-1.10229
-1.09863
-1.08459
-1.08582
-1.07697
-1.06964
-1.05835
-1.05377
-1.03943
-1.03149
-1.02936
-1.01685
-1.00891
-1.00189
-0.996399
-0.993958
-0.296021
1.34674
2.25861
2.70172
2.91046
3.00507
3.06244
3.09143
3.11157
3.12195
3.11646
3.11035
3.11096
3.10486
3.10028
3.09052
3.07434
3.05511
3.04413
3.0304
3.01514
3.00049
2.98492
2.96509
2.95563
2.93701
2.91412
2.89429
2.87476
2.85492
2.84149
2.82471
2.80945
2.7948
2.77222
2.75757
2.7359
2.71881
2.69775
2.67548
2.66907
2.65198
2.62909
2.6181
2.59888
2.57782
2.56439
2.55249
2.53784
2.51556
2.50183
2.48779
2.47345
2.45728
2.44507
2.42767
2.4234
2.40601
2.38556
2.36786
1.68427
0.0341797
-0.896606
-1.34216
-1.55975
-1.67389
-1.73492
-1.77032
-1.79108
-1.80359
-1.81274
-1.8161
-1.8222
-1.81183
-1.81854
-1.81305
-1.80054
-1.80267
-1.79504
-1.78741
-1.77612
-1.76422
-1.7511
-1.7392
-1.73126
-1.72028
-1.69952
-1.68915
-1.67358
-1.66687
-1.65771
-1.64062
-1.61743
-1.61713
-1.60126
-1.59088
-1.58173
-1.56433
-1.54755
-1.54633
-1.53778
-1.52618
-1.50696
-1.50665
-1.48254
-1.47003
-1.45813
-1.44897
-1.43799
-1.43066
-1.42212
-1.4151
-1.40198
-1.38031
-1.37909
-1.36841
-1.35864
-1.34705
-1.33545
-1.3269
-1.3205
-1.31744
-1.31195
-1.31134
-1.29272
-1.28479
-1.27319
-1.26465
-1.25793
-1.24908
-1.23566
-1.23138
-1.21948
-1.2088
-1.19995
-1.18958
-1.18591
-1.17798
-1.16638
-1.15997
-1.15295
-0.690308
1.01318
2.01233
2.49908
2.7243
2.83905
2.90649
2.93488
2.95074
2.96021
2.95746
2.95319
2.95776
2.95044
2.93884
2.92938
2.92175
2.91107
2.90039
2.88483
2.86835
2.84882
2.82959
2.81433
2.7948
2.77924
2.76215
2.74872
2.73376
2.71545
2.6944
2.67548
2.66052
2.64618
2.62207
2.60864
2.58972
2.57233
2.5589
2.54242
2.52655
2.50763
2.49207
2.47742
2.45605
2.44202
2.42767
2.40814
2.39807
2.3819
2.3642
2.34528
2.33459
2.32147
2.3056
2.28271
2.27631
2.26685
2.25525
2.2403
2.22382
2.20795
2.19299
2.14264
0.439148
-0.773926
-1.37543
-1.66901
-1.81061
-1.88385
-1.92596
-1.9577
-1.97418
-1.98547
-1.98944
-1.99066
-1.99341
-1.99249
-1.9809
-1.97845
-1.9696
-1.95892
-1.9458
-1.94244
-1.93085
-1.91376
-1.90521
-1.89423
-1.8808
-1.86554
-1.84875
-1.83929
-1.83075
-1.81793
-1.80267
-1.78986
-1.77399
-1.76483
-1.75446
-1.73492
-1.72882
-1.71234
-1.70197
-1.69403
-1.67938
-1.67419
-1.65497
-1.64093
-1.63544
-1.61987
-1.60767
-1.59821
-1.58875
-1.57532
-1.57013
-1.56158
-1.55701
-1.53076
-1.52374
-1.51306
-1.50269
-1.49445
-1.48621
-1.47858
-1.46606
-1.45966
-1.45172
-1.4389
-1.43005
-1.42303
-1.41083
-1.40106
-1.39069
-1.38336
-1.37146
-1.35773
-1.34888
-1.34399
-1.33759
-1.32324
-1.31866
-1.31012
-1.30188
-1.28845
-1.28387
-0.604553
1.04218
1.95709
2.40509
2.6239
2.71881
2.78076
2.80609
2.82074
2.83142
2.83417
2.84027
2.83173
2.82593
2.81952
2.8183
2.79877
2.789
2.77344
2.75848
2.73529
2.72217
2.71057
2.69409
2.67609
2.659
2.64313
2.62726
2.60468
2.58942
2.5769
2.56287
2.54883
2.52472
2.50244
2.49084
2.47437
2.45575
2.44141
2.4231
2.40631
2.38556
2.37427
2.35565
2.33887
2.32849
2.31293
2.2934
2.27783
2.2641
2.24915
2.24091
2.22351
2.20062
2.18811
2.1817
2.17102
2.15881
2.13837
2.13501
2.11456
2.08466
2.08405
2.07245
2.0578
2.04498
2.03949
2.02454
0.730286
-0.684204
-1.41876
-1.77032
-1.94336
-2.03217
-2.07642
-2.10876
-2.12402
-2.13348
-2.13898
-2.14478
-2.13531
-2.14142
-2.13501
-2.13776
-2.11975
-2.117
-2.10236
-2.09473
-2.08344
-2.06635
-2.0575
-2.04224
-2.03583
-2.02118
-2.00897
-1.99188
-1.98273
-1.96869
-1.94794
-1.92993
-1.92413
-1.90765
-1.89606
-1.88263
-1.87164
-1.86432
-1.84143
-1.83533
-1.82007
-1.8103
-1.79779
-1.78528
-1.77307
-1.76056
-1.74347
-1.73584
-1.7276
-1.71448
-1.69952
-1.68823
-1.67999
-1.67023
-1.66412
-1.64948
-1.63635
-1.63116
-1.61743
-1.60461
-1.5918
-1.586
-1.5741
-1.5686
-1.55762
-1.54663
-1.53961
-1.52496
-1.51398
-1.49872
-1.49323
-1.48529
-1.47644
-1.46759
-1.45996
-1.45111
-1.43768
-1.43097
-1.42822
-1.41327
-1.40137
-1.39313
-1.38367
-1.37665
-1.36993
-1.35925
-1.00739
0.715027
1.75964
2.27081
2.51282
2.63519
2.69836
2.72888
2.74323
2.75269
2.76154
2.7655
2.75421
2.7475
2.74719
2.73743
2.72949
2.71698
2.70233
2.68951
2.67822
2.6651
2.65137
2.63062
2.61841
2.59949
2.57996
2.56927
2.54852
2.52594
2.50916
2.49603
2.47009
2.45667
2.43927
2.4234
2.40936
2.39227
2.37793
2.35748
2.34741
2.33337
2.3111
2.30347
2.2879
2.27905
2.258
2.24304
2.23022
2.21558
2.19696
2.1817
2.16919
2.15393
2.14142
2.12769
2.11487
2.09778
2.08588
2.07184
2.0578
2.04712
2.0285
0.874939
-0.589294
-1.36017
-1.73309
-1.91895
-2.0105
-2.05902
-2.0871
-2.10297
-2.11395
-2.14142
-2.13379
-2.13226
-2.12524
-2.12158
-2.11792
-2.1109
-2.11029
-2.09747
-2.08801
-2.07611
-2.06299
-2.05841
-2.03979
-2.0285
-2.0105
-2.00043
-1.99524
-1.97723
-1.96564
-1.95068
-1.91711
-1.9162
-1.90125
-1.8808
-1.87347
-1.85852
-1.84998
-1.83807
-1.82739
-1.80878
-1.79352
-1.79382
-1.7749
-1.76666
-1.75018
-1.73981
-1.72699
-1.71783
-1.70807
-1.69403
-1.68976
-1.67877
-1.66321
-1.64886
-1.6394
-1.62872
-1.61407
-1.61102
-1.5979
-1.59088
-1.58142
-1.57196
-1.56036
-1.54816
-1.53961
-1.52771
-1.52069
-1.51459
-1.49414
-1.48987
-1.47919
-1.4743
-1.46759
-1.45111
-1.44318
-1.43585
-1.42761
-1.42487
-1.41266
-1.4035
-1.38947
-1.3916
-1.37512
-1.36475
-1.35132
-1.34247
-1.33331
-1.32721
-0.950623
0.764771
1.79443
2.30408
2.5473
2.66571
2.73315
2.76306
2.78748
2.79541
2.79999
2.79388
2.79022
2.7829
2.7774
2.7652
2.75757
2.74536
2.73193
2.71576
2.69928
2.68677
2.67151
2.63885
2.64069
2.62268
2.60773
2.59338
2.56683
2.55371
2.5354
2.51892
2.49969
2.48688
2.46063
2.45056
2.43805
2.4231
2.40265
2.38708
2.3642
2.35229
2.33459
2.32391
2.29828
2.29156
2.27814
2.26379
2.24884
2.22778
2.21619
2.20001
2.18506
2.16949
2.16888
2.14111
2.1286
2.11823
2.10632
2.0929
2.08282
2.06635
2.0517
2.04071
2.03156
0.585022
-0.765076
-1.44348
-1.77795
-1.93939
-2.03064
-2.08038
-2.10663
-2.12311
-2.13654
-2.13318
-2.14142
-2.1402
-2.13043
-2.13043
-2.11823
-2.11456
-2.11212
-2.09625
-2.08557
-2.07916
-2.06329
-2.04742
-2.03766
-2.02606
-2.01477
-1.99219
-1.98334
-1.96838
-1.95709
-1.94458
-1.92291
-1.91803
-1.90247
-1.89178
-1.87988
-1.86523
-1.85577
-1.84326
-1.83624
-1.81763
-1.80817
-1.79199
-1.77612
-1.76025
-1.75446
-1.73859
-1.72882
-1.71295
-1.71143
-1.68121
-1.68518
-1.67419
-1.66138
-1.65253
-1.64032
-1.62903
-1.61652
-1.60492
-1.60095
-1.58447
-1.57471
-1.5683
-1.55304
-1.54419
-1.53687
-1.52954
-1.51978
-1.51642
-1.50787
-1.48834
-1.48621
-1.47247
-1.46637
-1.45325
-1.4447
-1.43646
-1.43127
-1.41693
-1.41083
-1.39709
-1.39099
-1.38306
-1.37787
-1.36322
-1.35925
-1.35437
-1.3443
-1.33179
-1.32385
-1.3147
-1.31256
-1.29883
-1.29364
-1.28265
-1.27106
-1.26404
-1.25916
-0.933838
0.79071
1.86371
2.36664
2.5946
2.72827
2.79388
2.83173
2.84332
2.85583
2.85553
2.8595
2.85767
2.86133
2.84363
2.83356
2.82837
2.81464
2.80304
2.78961
2.77008
2.75116
2.72461
2.72461
2.70782
2.69226
2.67517
2.65289
2.63763
2.62726
2.60406
2.5885
2.56775
2.55035
2.53418
2.51587
2.49725
2.48383
2.46674
2.45361
2.43469
2.42004
2.40204
2.37061
2.36847
2.35077
2.34039
2.32513
2.30804
2.29279
2.27661
2.26257
2.24457
2.23206
2.22168
2.21161
2.19482
2.17377
2.16766
2.15149
2.13928
2.12006
2.1109
2.09076
2.07886
2.07489
2.05444
2.03979
0.909119
-0.568237
-1.33881
-1.7218
-1.90643
-2.0047
-2.07123
-2.08557
-2.10571
-2.12189
-2.12402
-2.12677
-2.1228
-2.12036
-2.11853
-2.10236
-2.10358
-2.09839
-2.08862
-2.07642
-2.06573
-2.05719
-2.04254
-2.02942
-2.02179
-2.0108
-1.99371
-1.97723
-1.96625
-1.94702
-1.94
-1.92139
-1.90765
-1.89636
-1.88446
-1.87012
-1.85333
-1.84784
-1.83075
-1.82098
-1.80481
-1.79596
-1.78497
-1.77002
-1.76239
-1.75476
-1.73431
-1.72485
-1.7099
-1.70288
-1.69067
-1.67847
-1.66382
-1.6571
-1.64459
-1.63177
-1.61926
-1.61438
-1.60156
-1.59485
-1.58478
-1.57074
-1.55487
-1.55487
-1.54388
-1.52374
-1.52069
-1.50909
-1.50085
-1.48682
-1.4801
-1.47278
-1.46118
-1.45538
-1.44867
-1.44104
-1.41113
-1.42487
-1.41632
-1.40259
-1.39526
-1.38855
-1.3797
-1.3681
-1.35834
-1.34888
-1.34674
-1.32904
-1.32538
-1.31439
-1.30676
-1.30249
-1.2912
-1.28357
-1.2738
-1.26617
-1.23474
-1.26251
-1.24908
0.268555
1.57776
2.24243
2.55402
2.70844
2.78809
2.82623
2.85126
2.85095
2.86621
2.87292
2.87079
2.86102
2.85522
2.84515
2.83905
2.82806
2.81677
2.79633
2.78168
2.76978
2.74506
2.73071
2.71637
2.70081
2.68311
2.66846
2.65503
2.63123
2.61505
2.60132
2.5827
2.55859
2.54486
2.53143
2.51556
2.49512
2.47803
2.4527
2.44751
2.43988
2.41821
2.39349
2.38525
2.36816
2.35046
2.33521
2.31812
2.29553
2.27814
2.26959
2.25769
2.24548
2.23022
2.21832
2.20703
2.19208
2.17896
2.16217
2.15363
1.18835
-0.366821
-1.19629
-1.60004
-1.79596
-1.89941
-1.95251
-1.98669
-1.99707
-2.01569
-2.02789
-2.02545
-2.0285
-2.03339
-2.0285
-2.01965
-2.01111
-2.00348
-1.9928
-1.9809
-1.97632
-1.97174
-1.95892
-1.94519
-1.93298
-1.91925
-1.90582
-1.88843
-1.87378
-1.87317
-1.84692
-1.84082
-1.82251
-1.81671
-1.80145
-1.78528
-1.77155
-1.75415
-1.74347
-1.73309
-1.71906
-1.71326
-1.70654
-1.68976
-1.68091
-1.66656
-1.65009
-1.64459
-1.62994
-1.62109
-1.61865
-1.59119
-1.58997
-1.57288
-1.56616
-1.55273
-1.54602
-1.53534
-1.5274
-1.51703
-1.50665
-1.49902
-1.48682
-1.47766
-1.46545
-1.46027
-1.44562
-1.43433
-1.42639
-1.41418
-1.4502
-1.40656
-1.39282
-1.38977
-1.37177
-1.37177
-1.36688
-1.35345
-1.34674
-1.33484
-1.32751
-1.31195
-1.31165
-1.30432
-1.29639
-1.28693
-1.27991
-1.2735
-1.26251
-1.25214
-1.25153
-1.23932
-1.23505
-1.21185
-1.21552
-1.20514
-1.19446
-1.18256
-1.1731
-1.1734
-1.15936
-1.15692
-1.15143
-1.14502
-1.13464
-1.12915
-1.12427
-0.213013
1.35498
2.19269
2.6001
2.79205
2.88422
2.93884
2.96783
2.9834
2.98553
2.98553
2.98798
2.98096
2.97119
2.96356
2.95563
2.93915
2.93274
2.91626
2.90009
2.88055
2.86469
2.84668
2.83295
2.81464
2.79388
2.78168
2.77252
2.74078
2.73041
2.70996
2.69714
2.68768
2.66144
2.64618
2.62512
2.60162
2.58209
2.57172
2.55249
2.53143
2.51923
2.50854
2.48566
2.46918
2.45483
2.43347
2.42737
2.40845
2.39471
2.37396
2.35626
2.35229
2.33368
2.32056
2.30865
2.28882
2.27448
2.26532
2.24854
2.23602
2.22443
2.21191
2.19696
1.82922
0.104065
-0.940552
-1.45325
-1.70013
-1.83075
-1.89941
-1.93756
-1.95221
-1.96289
-1.98273
-1.98792
-1.98761
-1.98975
-1.98883
-1.98059
-1.97968
-1.97113
-1.9574
-1.95038
-1.94031
-1.93146
-1.91833
-1.90826
-1.89606
-1.88141
-1.87195
-1.85425
-1.84174
-1.83075
-1.81702
-1.78864
-1.79199
-1.78497
-1.7691
-1.75964
-1.73706
-1.73248
-1.72028
-1.7038
-1.69373
-1.68121
-1.66901
-1.65924
-1.64642
-1.64032
-1.62201
-1.61469
-1.60278
-1.59821
-1.58478
-1.57196
-1.56219
-1.55334
-1.53961
-1.52863
-1.52557
-1.51001
-1.50848
-1.49384
-1.47888
-1.47156
-1.4624
-1.45111
-1.44318
-1.43036
-1.42639
-1.41754
-1.409
-1.39984
-1.38611
-1.37939
-1.36383
-1.3623
-1.35529
-1.34399
-1.33057
-1.32568
-1.31714
-1.31317
-1.30524
-1.28876
-1.28571
-1.27838
-1.26495
-1.25916
-1.25031
-1.24451
-1.2384
-1.2326
-1.2204
-1.21429
-1.20209
-1.19202
-1.18408
-1.1792
-1.1795
-1.16943
-1.15997
-1.15295
-1.14441
-1.13312
-1.1319
-1.12762
-1.11755
-1.11053
-1.10382
-1.09406
-0.658264
1.0553
2.06451
2.55096
2.78687
2.90436
2.95776
2.98615
3.00842
3.00873
3.01331
3.00842
3.01056
3.00934
3.00171
2.98767
2.97516
2.96539
2.95013
2.93518
2.91718
2.90222
2.88239
2.86835
2.85492
2.8418
2.82196
2.80273
2.7829
2.76733
2.7536
2.73315
2.71332
2.6944
2.6767
2.6651
2.64709
2.62726
2.61169
2.58881
2.57324
2.55463
2.54028
2.52319
2.50488
2.49634
2.47559
2.46246
2.43835
2.42767
2.40967
2.39227
2.37671
2.36816
2.35718
2.33948
2.32239
2.30652
2.29431
2.28149
2.26837
2.25189
2.23297
2.22137
2.20612
1.27258
-0.289001
-1.1261
-1.53656
-1.72943
-1.84021
-1.89301
-1.92566
-1.94977
-1.9632
-1.9696
-1.97784
-1.97479
-1.97845
-1.98273
-1.97174
-1.96503
-1.95435
-1.94244
-1.93756
-1.92535
-1.90948
-1.89911
-1.89026
-1.88263
-1.87531
-1.86035
-1.84357
-1.83319
-1.81366
-1.7981
-1.79016
-1.77765
-1.76453
-1.75018
-1.73859
-1.73065
-1.72241
-1.70624
-1.69495
-1.68732
-1.66809
-1.65588
-1.64185
-1.63055
-1.61957
-1.60828
-1.60217
-1.59241
-1.58051
-1.56982
-1.56036
-1.54816
-1.53625
-1.53412
-1.52802
-1.51276
-1.49506
-1.48773
-1.4859
-1.47491
-1.46393
-1.44623
-1.43738
-1.43341
-1.42242
-1.40167
-1.39679
-1.38367
-1.37573
-1.36871
-1.35376
-1.34949
-1.34186
-1.33698
-1.32935
-1.32172
-1.315
-1.31134
-1.2973
-1.29089
-1.28632
-1.27594
-1.26373
-1.26007
-1.25397
-1.25031
-1.23657
-1.24176
-1.19568
-1.20972
-1.19751
-1.19965
-1.18927
-1.18286
-1.17493
-1.16821
-1.16455
-1.14777
-1.14532
-1.13525
-1.12915
-1.12061
-1.11176
-1.10504
-1.10016
-1.09406
-1.08734
-1.07452
-1.06842
-1.06628
-1.0553
-1.04889
-1.04065
-1.02692
0.043335
1.53992
2.32574
2.71301
2.89185
2.97821
3.0246
3.05542
3.06824
3.07404
3.06976
3.06671
3.06335
3.05573
3.0423
3.02979
3.01575
3.00568
2.99377
2.97302
2.95776
2.93671
2.92358
2.90222
2.8833
2.86621
2.84821
2.82745
2.8125
2.79449
2.77588
2.75726
2.73804
2.72217
2.69897
2.68158
2.66663
2.65015
2.62787
2.62085
2.59552
2.58606
2.56439
2.55585
2.53479
2.52655
2.51007
2.49207
2.47406
2.46277
2.44781
2.43378
2.40997
0.956726
-0.383911
-1.07788
-1.41205
-1.5683
-1.66443
-1.71326
-1.74713
-1.76605
-1.77338
-1.77246
-1.79169
-1.79077
-1.79718
-1.78619
-1.77521
-1.77277
-1.76819
-1.75873
-1.7511
-1.74133
-1.72943
-1.72241
-1.71814
-1.70288
-1.69098
-1.67145
-1.66595
-1.6568
-1.64307
-1.63055
-1.61499
-1.60492
-1.58997
-1.57257
-1.56952
-1.55396
-1.53931
-1.53259
-1.52496
-1.52161
-1.50146
-1.492
-1.4859
-1.47064
-1.46454
-1.45142
-1.44562
-1.43127
-1.41998
-1.41479
-1.40442
-1.39801
-1.38519
-1.37634
-1.36871
-1.35956
-1.34247
-1.32904
-1.32019
-1.3147
-1.30829
-1.30005
-1.29974
-1.28296
-1.27625
-1.26282
-1.24817
-1.2439
-1.23291
-1.22559
-1.21704
-1.21735
-1.2085
-1.1969
-1.1908
-1.17859
-1.17218
-1.16486
-1.15417
-1.15265
-1.17432
-1.1377
-1.12885
-1.12885
-1.11389
-1.11389
-1.09863
-1.0907
-1.0849
-1.07727
-1.07574
-1.07727
-1.06842
-1.06018
-1.05286
-1.04553
-1.03729
-1.03088
-1.02234
-1.00983
-1.01929
-1.01593
-1.00159
-0.996399
-0.986633
-0.980835
-0.970154
-0.961304
-0.961914
-0.948486
-0.950317
-0.936279
-0.933533
-0.922241
-0.919189
-0.910339
-0.904236
-0.891113
-0.881958
-0.875854
0.747986
2.00378
2.62299
2.92816
3.06793
3.14545
3.17535
3.19916
3.20587
3.21564
3.20953
3.20923
3.2019
3.19031
3.18451
3.16132
3.14667
3.12958
3.12531
3.10822
3.09418
3.02582
3.05298
3.0304
3.00781
2.99164
2.97913
2.96173
2.94312
2.91962
2.90588
2.88727
2.86957
2.84576
2.82593
2.80457
2.78931
2.76917
2.76093
2.7417
2.72675
2.70599
2.68341
2.66876
2.64435
2.63306
2.61353
2.59735
2.58667
2.56897
2.55127
2.53693
2.51923
2.50702
2.49268
1.13922
-0.254211
-0.96405
-1.30646
-1.47858
-1.57104
-1.62537
-1.65955
-1.6806
-1.69464
-1.70197
-1.70349
-1.7041
-1.7041
-1.70349
-1.70502
-1.69952
-1.69159
-1.6803
-1.6748
-1.66992
-1.64825
-1.63879
-1.63147
-1.62384
-1.61346
-1.5979
-1.59149
-1.57715
-1.56067
-1.55914
-1.54572
-1.53168
-1.51764
-1.51337
-1.49963
-1.48865
-1.48224
-1.46851
-1.45935
-1.43921
-1.43646
-1.41876
-1.41754
-1.40533
-1.39374
-1.38519
-1.37756
-1.36566
-1.35956
-1.35223
-1.34064
-1.3266
-1.31927
-1.31256
-1.29913
-1.28967
-1.28326
-1.27411
-1.2674
-1.26038
-1.24023
-1.23932
-1.22894
-1.22101
-1.2149
-1.20209
-1.19537
-1.18774
-1.18866
-1.18134
-1.17279
-1.16058
-1.15326
-1.14075
-1.12732
-1.12579
-1.11664
-1.11359
-1.11084
-1.10229
-1.08826
-1.08551
-1.0788
-1.06934
-1.0611
-1.04919
-1.0437
-1.03973
-1.03363
-1.02875
-1.0257
-1.01593
-1.00739
-0.997009
-0.987549
-0.979614
-0.971069
-0.970154
-0.962219
-0.957642
-0.954285
-0.947571
-0.936584
-0.931396
-0.92804
-0.918274
-0.914612
-0.904541
-0.898743
-0.899963
-0.892944
-0.890503
-0.87738
-0.871277
-0.864563
-0.863342
-0.857544
-0.85144
-0.846252
-0.837708
-0.83374
-0.240173
1.42975
2.37152
2.82867
3.05176
3.1601
3.21075
3.24402
3.25409
3.26172
3.26141
3.26141
3.2547
3.24921
3.2373
3.23181
3.21777
3.19672
3.18542
3.1601
3.1427
3.13049
3.11676
3.09326
3.07556
3.06091
3.04474
3.02338
3.01025
2.98981
2.95837
2.94037
2.92358
2.90955
2.89093
2.86713
2.85095
2.83142
2.81281
2.79327
2.76978
2.76276
2.73407
2.72064
2.70477
2.68646
2.677
2.64984
2.63885
2.62512
1.55029
0.0344849
-0.77179
-1.16364
-1.34949
-1.44867
-1.50848
-1.53625
-1.56525
-1.57837
-1.58783
-1.5979
-1.6037
-1.60004
-1.59973
-1.59668
-1.58813
-1.5802
-1.57349
-1.56586
-1.56464
-1.55273
-1.54846
-1.54175
-1.52954
-1.52008
-1.50452
-1.49506
-1.48895
-1.47675
-1.46606
-1.45721
-1.44196
-1.42853
-1.4212
-1.40656
-1.39435
-1.38397
-1.36871
-1.36078
-1.35071
-1.34247
-1.3385
-1.32141
-1.30951
-1.30035
-1.29181
-1.28571
-1.2735
-1.2677
-1.25671
-1.24847
-1.23627
-1.22284
-1.21674
-1.20728
-1.19781
-1.19598
-1.18652
-1.17676
-1.16394
-1.15021
-1.15417
-1.1496
-1.1438
-1.12762
-1.12946
-1.12152
-1.1084
-1.09894
-1.09406
-1.08887
-1.08368
-1.07697
-1.06842
-1.05743
-1.05652
-1.04889
-1.04431
-1.03851
-1.03546
-1.02783
-1.02478
-1.0144
-1.01227
-1.00952
-0.995483
-0.994873
-0.977783
-0.974426
-0.967407
-0.96344
-0.960388
-0.947266
-0.945129
-0.935669
-0.927124
-0.922546
-0.913086
-0.9021
-0.891113
-0.884094
-0.886841
-0.885925
-0.881042
-0.868225
-0.866089
-0.858154
-0.849304
-0.834961
-0.716858
1.00555
2.1579
2.72003
2.99011
3.11829
3.18756
3.22754
3.24097
3.24982
3.25775
3.25897
3.25653
3.25317
3.23669
3.21442
3.1958
3.18634
3.17352
3.16254
3.14331
3.12103
3.10333
3.08655
3.07007
3.04688
3.02765
2.99896
2.98676
2.96844
2.94525
2.93396
2.91168
2.89185
2.87018
2.85583
2.84119
2.81769
2.79938
2.78473
2.77252
2.74658
2.72675
2.70874
2.69409
2.66937
2.65564
2.63031
2.62573
2.6059
2.58575
2.56744
2.55188
2.5354
2.51312
2.49542
2.48505
2.4649
2.44904
2.435
2.42828
2.41302
2.39563
2.38037
2.36115
0.783691
-0.501099
-1.14594
-1.45538
-1.60461
-1.69098
-1.73706
-1.77032
-1.78436
-1.80695
-1.81549
-1.82129
-1.81854
-1.82404
-1.81793
-1.81061
-1.79993
-1.80389
-1.7984
-1.78314
-1.77399
-1.76331
-1.75568
-1.74255
-1.72333
-1.71936
-1.71295
-1.69434
-1.6803
-1.66595
-1.65497
-1.64032
-1.62659
-1.62415
-1.61926
-1.60797
-1.59058
-1.5802
-1.57135
-1.55792
-1.54663
-1.53687
-1.52649
-1.51978
-1.50696
-1.49475
-1.48895
-1.47766
-1.46545
-1.4563
-1.45203
-1.44928
-1.42761
-1.41022
-1.41632
-1.4035
-1.38702
-1.38062
-1.38
-1.36902
-1.35742
-1.35132
-1.34369
-1.32935
-1.35742
-1.30676
-1.29669
-1.2854
-1.27777
-1.26984
-1.2674
-1.26465
-1.25549
-1.26068
-1.23901
-1.22833
-1.22864
-1.21643
-1.20911
-1.20514
-1.20209
-1.19537
-1.18805
-1.17859
-1.16852
-1.14655
-1.14136
-1.13678
-1.12823
-1.12152
-1.12122
-1.11145
-1.10474
-1.09589
-1.091
-1.08826
-1.08063
-1.07117
-1.06598
-1.05225
-1.04767
-1.05072
-1.04218
-1.03119
-1.02692
0.153503
1.61835
2.37213
2.73376
2.90863
2.99347
3.03436
3.05511
3.07526
3.07159
3.07404
3.07587
3.06152
3.05634
3.04443
3.03162
3.01361
3.00049
2.98706
2.96936
2.9657
2.93671
2.9184
2.90344
2.88544
2.86713
2.84851
2.82806
2.80945
2.78625
2.77313
2.75665
2.7359
2.72339
2.70477
2.68799
2.66876
2.64648
2.62543
2.60742
2.58087
2.57416
2.5528
2.54089
2.52625
2.51434
2.49115
2.47406
2.45819
2.44049
2.42462
2.40997
2.39594
2.38312
2.36664
2.34833
2.33673
2.32208
2.30835
2.29401
1.10901
-0.359192
-1.12701
-1.50085
-1.67389
-1.76819
-1.81671
-1.85059
-1.87805
-1.88141
-1.88995
-1.89545
-1.89972
-1.89758
-1.89301
-1.88904
-1.88354
-1.87622
-1.86981
-1.8634
-1.85059
-1.84143
-1.83472
-1.82861
-1.80878
-1.79382
-1.78345
-1.77704
-1.76361
-1.74927
-1.74011
-1.72699
-1.71783
-1.70227
-1.68762
-1.67664
-1.66382
-1.65405
-1.64185
-1.63147
-1.63025
-1.61774
-1.60522
-1.59515
-1.58356
-1.5683
-1.5567
-1.55304
-1.54419
-1.5329
-1.5274
-1.51306
-1.51978
-1.50055
-1.48499
-1.46912
-1.46057
-1.45264
-1.44745
-1.43372
-1.43127
-1.4212
-1.41327
-1.40656
-1.40015
-1.38611
-1.37451
-1.3678
-1.3562
-1.3504
-1.34003
-1.3327
-1.32324
-1.3089
-1.30371
-1.2915
-1.28235
-1.27686
-1.26648
-1.2616
-1.26556
-1.26709
-1.24695
-1.24023
-1.2326
-1.22345
-1.21643
-1.21002
-1.203
-1.19446
-1.18652
-1.17828
-1.16882
-1.15814
-1.1554
-1.15021
-1.14532
-1.13983
-1.13159
-1.12488
-1.11572
-1.12366
-1.10504
-1.09497
-1.08459
-1.07971
-1.07574
-1.0672
-1.05927
-1.04706
-1.04645
-1.03912
-1.0321
-1.02692
-1.01166
-1.01074
-0.997925
-0.993347
-0.440063
1.23535
2.19452
2.65137
2.88635
2.99561
3.04352
3.07373
3.09082
3.10028
3.09998
3.09662
3.09814
3.08319
3.07251
3.06396
3.05511
3.03894
3.03192
3.02246
2.99652
2.9837
2.96814
2.93335
2.92328
2.90894
2.88849
2.86682
2.84454
2.82806
2.81158
2.7948
2.77191
2.75604
2.7356
2.71454
2.69836
2.6825
2.66113
2.64618
2.6239
2.48108
0.745239
-0.407104
-0.982971
-1.27106
-1.41083
-1.48743
-1.53473
-1.56067
-1.57349
-1.58997
-1.59393
-1.59698
-1.59546
-1.59668
-1.59943
-1.60309
-1.59729
-1.59027
-1.57745
-1.5744
-1.56616
-1.55792
-1.55609
-1.54114
-1.53198
-1.5097
-1.50879
-1.50177
-1.49261
-1.48102
-1.46881
-1.4502
-1.44653
-1.4389
-1.43005
-1.42487
-1.41022
-1.39618
-1.38306
-1.37482
-1.3559
-1.35223
-1.34369
-1.34338
-1.32019
-1.31042
-1.30005
-1.29669
-1.28723
-1.27686
-1.26801
-1.26068
-1.25183
-1.24573
-1.24573
-1.22894
-1.2204
-1.21521
-1.20361
-1.19476
-1.18805
-1.17737
-1.16302
-1.14868
-1.14899
-1.1441
-1.13251
-1.12549
-1.12762
-1.11755
-1.10657
-1.09802
-1.09589
-1.08887
-1.08551
-1.0733
-1.07208
-1.0614
-1.06079
-1.04889
-1.03882
-1.0321
-1.02295
-1.01624
-1.00952
-1.00189
-0.984497
-0.98999
-0.986633
-0.975952
-0.965881
-0.96405
-0.954895
-0.944824
-0.918274
-0.938416
-0.934753
-0.924683
-0.9198
-0.911865
-0.907288
-0.901184
-0.892639
-0.903625
-0.888062
-0.886536
-0.87738
-0.872192
-0.866089
-0.858154
-0.849609
-0.845032
0.462341
1.86493
2.58575
2.91534
3.07495
3.15948
3.19855
3.22113
3.237
3.24127
3.24219
3.24188
3.23517
3.22937
3.21808
3.20312
3.19305
3.18054
3.1665
3.14514
3.13263
3.1073
3.11249
3.06763
3.04291
3.02643
3.00507
2.98309
2.96387
2.95319
2.9306
2.91138
2.88757
2.86835
2.84912
2.82928
2.81433
2.79907
2.77924
2.77008
2.7536
2.73132
2.71393
2.69073
2.67426
2.65503
2.6355
2.62085
2.60895
2.59003
1.54266
0.015564
-0.791321
-1.18622
-1.37787
-1.4798
-1.53595
-1.57257
-1.59363
-1.60828
-1.61621
-1.62201
-1.61652
-1.62598
-1.6217
-1.61804
-1.61438
-1.61194
-1.5979
-1.59241
-1.58844
-1.57562
-1.57257
-1.56647
-1.55304
-1.54724
-1.5329
-1.51917
-1.51398
-1.50421
-1.48895
-1.47919
-1.46576
-1.45752
-1.44653
-1.43799
-1.42395
-1.40869
-1.39618
-1.38489
-1.38336
-1.36993
-1.362
-1.35132
-1.34308
-1.34033
-1.32416
-1.3205
-1.31134
-1.30646
-1.29547
-1.28357
-1.26923
-1.26068
-1.25641
-1.25031
-1.24084
-1.23596
-1.22955
-1.21704
-1.20728
-1.19843
-1.18561
-1.18317
-1.17798
-1.16089
-1.1499
-1.14929
-1.13098
-1.13586
-1.12732
-1.12
-1.1084
-1.10443
-1.09528
-1.09436
-1.08459
-1.08063
-1.07483
-1.06903
-1.06018
-1.05743
-1.04065
-1.03668
-1.02997
-1.02081
-1.01654
-1.00586
-1.00311
-0.993042
-0.984497
-0.986938
-0.975037
-0.9729
-0.967407
-0.957031
-0.954895
-0.951843
-0.939026
-0.932617
-0.924683
-0.920715
-0.917969
-0.910339
-0.907288
-0.899048
-0.899963
-0.888672
-0.883789
-0.87677
-0.868225
-0.861206
-0.854797
-0.845947
-0.844421
-0.840149
0.766907
2.02545
2.6593
2.96143
3.10822
3.18176
3.21655
3.23578
3.24921
3.24402
3.24432
3.237
3.23212
3.22235
3.21228
3.20404
3.1778
3.16925
3.15247
3.13538
3.11493
3.09418
3.07953
3.05389
3.02948
3.00903
2.99835
2.98157
2.9657
2.94891
2.92847
2.90314
2.88361
2.86957
2.85126
2.83325
2.81555
2.79907
1.63055
0.149231
-0.628052
-1.00616
-1.1969
-1.28998
-1.34552
-1.37512
-1.40472
-1.41632
-1.4212
-1.4325
-1.43677
-1.43555
-1.44165
-1.44287
-1.4386
-1.44501
-1.42853
-1.4212
-1.4093
-1.40411
-1.39435
-1.38763
-1.38062
-1.37299
-1.36261
-1.34949
-1.3562
-1.3324
-1.32111
-1.31165
-1.30524
-1.29517
-1.2854
-1.27502
-1.26068
-1.24054
-1.24329
-1.23322
-1.22467
-1.21307
-1.20239
-1.1911
-1.18561
-1.17767
-1.16943
-1.15631
-1.14868
-1.13831
-1.13586
-1.12396
-1.12091
-1.1142
-1.11115
-1.10626
-1.09985
-1.09436
-1.08368
-1.07239
-1.06842
-1.05774
-1.05255
-1.04462
-1.0379
-1.03149
-1.02753
-1.01959
-1.01959
-1.00342
-1.00098
-0.992737
-0.984497
-0.973816
-0.982666
-0.969849
-0.959473
-0.9552
-0.946045
-0.938721
-0.935059
-0.924072
-0.918579
-0.907898
-0.897217
-0.889893
-0.883789
-0.876465
-0.872498
-0.874634
-0.870056
-0.85968
-0.85144
-0.845947
-0.844116
-0.843811
-0.84259
-0.838928
-0.827942
-0.821838
-0.819397
-0.812683
-0.802612
-0.801392
-0.794678
-0.787659
-0.785217
-0.783386
-0.776978
-0.763855
-0.762329
-0.758362
-0.74585
-0.739441
-0.733032
-0.730286
0.232849
1.77826
2.60101
2.98004
3.18024
3.26874
3.31207
3.33344
3.34564
3.34778
3.34595
3.34076
3.33862
3.33435
3.31543
3.30475
3.29254
3.2785
3.26538
3.23669
3.22357
3.1955
3.17596
3.15826
3.14819
3.12347
3.10638
3.09235
3.06976
3.05511
3.03467
3.00934
2.98706
2.97577
2.95227
2.93335
2.91473
2.89551
2.87628
2.85736
2.83997
2.81738
2.80212
2.78442
2.76306
2.74536
2.73529
1.38123
-0.017395
-0.738831
-1.09039
-1.27106
-1.35956
-1.40839
-1.44409
-1.46515
-1.48468
-1.48712
-1.49078
-1.49506
-1.49902
-1.50116
-1.4975
-1.49567
-1.48834
-1.47217
-1.46362
-1.46149
-1.44958
-1.43372
-1.43066
-1.41846
-1.41418
-1.4035
-1.39221
-1.38489
-1.37909
-1.36902
-1.36078
-1.34888
-1.33942
-1.32507
-1.31897
-1.30829
-1.29852
-1.28906
-1.27563
-1.2674
-1.25305
-1.24817
-1.23505
-1.2265
-1.22375
-1.21765
-1.20178
-1.19629
-1.19263
-1.18286
-1.17584
-1.16425
-1.15845
-1.15265
-1.13373
-1.13159
-1.13007
-1.12213
-1.11542
-1.10687
-1.10138
-1.08948
-1.08429
-1.08002
-1.07239
-1.06903
-1.05591
-1.05804
-1.04309
-1.03882
-1.02783
-1.02051
-1.01105
-1.00891
-1.00616
-1.00067
-0.993652
-0.991516
-0.973206
-0.977478
-0.974426
-0.962524
-0.958557
-0.949402
-0.93811
-0.927734
-0.92926
-0.922241
-0.922241
-0.919495
-0.911255
-0.903015
-0.896606
-0.888977
-0.879211
-0.879822
-0.869141
-0.864868
-0.859985
-0.854492
-0.84137
-0.84198
-0.83313
-0.8255
-0.817871
-0.811462
-0.79895
-0.805359
-0.800171
-0.796814
-0.786743
-0.654907
1.06873
2.21436
2.77893
3.05237
3.17902
3.2428
3.27484
3.28949
3.30048
3.29926
3.2959
3.29193
3.28552
3.27423
3.25897
3.26752
3.23547
3.22021
3.19855
3.18207
3.17047
3.1485
3.13202
3.11401
3.08838
3.06732
3.0423
3.02643
3.00415
2.98004
2.96265
2.93854
2.92725
2.91168
2.89124
2.87811
2.8537
2.83752
2.81219
2.79663
2.77985
2.76672
2.75024
2.72552
2.70782
2.69073
2.67303
2.65717
2.64008
2.22992
0.508423
-0.521545
-1.02692
-1.27838
-1.40533
-1.47278
-1.51093
-1.54694
-1.56738
-1.57806
-1.57471
-1.5863
-1.58844
-1.59149
-1.58905
-1.5921
-1.57837
-1.57684
-1.57074
-1.56586
-1.55914
-1.54785
-1.5274
-1.52039
-1.51184
-1.50421
-1.49261
-1.48041
-1.47491
-1.4682
-1.45538
-1.44257
-1.43341
-1.42426
-1.41327
-1.39465
-1.39313
-1.38733
-1.37238
-1.35773
-1.35254
-1.3385
-1.32782
-1.31775
-1.30737
-1.30585
-1.30096
-1.28143
-1.27045
-1.26495
-1.25854
-1.25153
-1.23749
-1.22589
-1.22131
-1.21521
-1.20483
-1.203
-1.1853
-1.17493
-1.1734
-1.16302
-1.15814
-1.14624
-1.14288
-1.13861
-1.13586
-1.12549
-1.11847
-1.11389
-1.10626
-1.10016
-1.09009
-1.08551
-1.08215
-1.07239
-1.06934
-1.06293
-1.05408
-1.04828
-1.04065
-1.03119
-1.02722
-1.02081
-1.01013
-1.00433
-0.999146
-0.983582
-0.985718
-0.981445
-0.975647
-0.969543
-0.960388
-0.950012
-0.948181
-0.943604
-0.940552
-0.930481
-0.926819
-0.916748
-0.913391
-0.904236
-0.899658
-0.894775
-0.89386
-0.888977
-0.879822
-0.871582
-0.876465
-0.863953
-0.857239
-0.854187
-0.849915
-0.840759
-0.834351
-0.829468
-0.825806
-0.812683
-0.813599
-0.80658
-0.803528
-0.797119
-0.798645
-0.798645
-0.787659
-0.779419
-0.774841
-0.769348
-0.758972
-0.756836
-0.7547
-0.748596
-0.751038
-0.742798
-0.73761
-0.729675
-0.718689
-0.715637
-0.713196
-0.705566
-0.699463
-0.697327
-0.690308
-0.690002
-0.68512
-0.675049
-0.673523
-0.671387
-0.6604
-0.658264
-0.661621
-0.656128
-0.649109
-0.640564
-0.632629
-0.63385
-0.62439
-0.619812
-0.617371
-0.61554
-0.617371
-0.610046
-0.602112
-0.602112
-0.596008
-0.582581
-0.576477
-0.56427
-0.567017
-0.581665
-0.563049
-0.558167
-0.55481
-0.553894
-0.549316
-0.542603
-0.531006
-0.533142
-0.52887
-0.527649
-0.525208
-0.515137
-0.508728
-0.511475
-0.507202
-0.498962
-0.497131
-0.488586
-0.479126
-0.471497
-0.492554
-0.47821
-0.472412
-0.470886
-0.465698
-0.466003
-0.456543
-0.455933
-0.452271
-0.448303
-0.444946
-0.444031
-0.436401
-0.434265
-0.431824
-0.423584
-0.420227
-0.410767
-0.409546
-0.390625
-0.396729
-0.387878
-0.39093
-0.388794
-0.381165
-0.375366
-0.37384
-0.37262
-0.361328
-0.361633
-0.359802
-0.361633
-0.354614
-0.354309
-0.355225
-0.350647
-0.342102
-0.33844
-0.333557
-0.332336
-0.359192
-0.320435
-0.327454
-0.321045
-0.318604
-0.310974
-0.306702
-0.299683
-0.293884
-0.297546
-0.294189
-0.291748
-0.290833
-0.281982
-0.285645
-0.28595
-0.285645
-0.279236
-0.270081
-0.269165
-0.266724
-0.26001
-0.258789
-0.257263
-0.259705
-0.245056
-0.246582
-0.242004
-0.234985
-0.237122
-0.23468
-0.231628
-0.226135
-0.220032
-0.218811
-0.220032
-0.217285
-0.220032
-0.215454
-0.204773
-0.216064
-0.205383
-0.204163
-0.198669
-0.195312
-0.187683
-0.195923
-0.189209
-0.19043
-0.186462
-0.185852
-0.177307
-0.183411
1.18256
2.55157
3.25317
3.58368
3.7442
3.81958
3.85834
3.87665
3.88519
3.88977
3.88611
3.88214
3.87024
3.85071
3.83881
3.81958
3.80524
3.7912
3.7674
3.75183
3.72437
3.70453
3.68591
3.65753
3.62793
3.61572
3.59924
3.56323
3.55011
3.52509
3.50525
3.48175
3.45917
3.43842
3.41919
3.39752
3.37189
3.35907
3.33527
3.31024
3.28918
3.27118
3.23853
3.22052
3.2019
3.18481
3.1665
3.15063
2.35504
0.734558
-0.155945
-0.595093
-0.812683
-0.919189
-0.992126
-1.03882
-1.06079
-1.07391
-1.08612
-1.1026
-1.10535
-1.10779
-1.10901
-1.10657
-1.10199
-1.10748
-1.09802
-1.08551
-1.09314
-1.09039
-1.07544
-1.07544
-1.05743
-1.0611
-1.05164
-1.04187
-1.03149
-1.02692
-1.01471
-1.00891
-1.00067
-0.993042
-0.979004
-0.974426
-0.967712
-0.96283
-0.950928
-0.943604
-0.933838
-0.930176
-0.921631
-0.914612
-0.905762
-0.897217
-0.889282
-0.887451
-0.882568
-0.87677
-0.866089
-0.858765
-0.858765
-0.845947
-0.844421
-0.831299
-0.82489
-0.823059
-0.808411
-0.805664
-0.794678
-0.794983
-0.787354
-0.782776
-0.773621
-0.7724
-0.769043
-0.760803
-0.757141
-0.755005
-0.747681
-0.738525
-0.732727
-0.726929
-0.729065
-0.725708
-0.71991
-0.71167
-0.712585
-0.701599
-0.701599
-0.696411
-0.693665
-0.683899
-0.680542
-0.683899
-0.670166
-0.679626
-0.670776
-0.660706
-0.654602
-0.653076
-0.639648
-0.635376
-0.632324
-0.632629
-0.627747
-0.621643
-0.624695
-0.607605
-0.610962
-0.609436
-0.600586
-0.593567
-0.592651
-0.591736
-0.591125
-0.585327
-0.587463
-0.568848
-0.567322
-0.567017
-0.562134
-0.559082
-0.556946
-0.551758
-0.543213
-0.544434
-0.542603
0.684509
2.11365
2.85004
3.20282
3.37677
3.45306
3.49487
3.5141
3.53363
3.52234
3.5321
3.52936
3.51868
3.50891
3.49304
3.48206
3.45459
3.44147
3.41766
3.40302
3.38562
3.36884
3.34686
3.32977
3.30902
3.28613
3.26447
3.23914
3.21259
3.19305
3.17108
3.1427
3.13263
3.1192
3.10303
3.07983
3.05756
3.04138
3.01605
2.99408
2.9953
2.95502
2.93396
2.91595
2.89703
2.88361
2.86346
2.84607
2.82135
2.80853
2.79114
2.76398
2.74506
1.45874
0.0366211
-0.700989
-1.06049
-1.23657
-1.33514
-1.37909
-1.42242
-1.44165
-1.45599
-1.46423
-1.46851
-1.47247
-1.47308
-1.47858
-1.47491
-1.47278
-1.46576
-1.46637
-1.45538
-1.45081
-1.43921
-1.43219
-1.42242
-1.41174
-1.40167
-1.38855
-1.37146
-1.37024
-1.36627
-1.35681
-1.34552
-1.3269
-1.3266
-1.31775
-1.30951
-1.31714
-1.28479
-1.28143
-1.26465
-1.25061
-1.24481
-1.23352
-1.23505
-1.22894
-1.22101
-1.2149
-1.18591
-1.19507
-1.18591
-1.17462
-1.16852
-1.15631
-1.15051
-1.14563
-1.13831
-1.12152
-1.12274
-1.12122
-1.11298
-1.10962
-1.10046
-1.08856
-1.08093
-1.08124
-1.0733
-1.06689
-1.08063
-1.05682
-1.0495
-1.04187
-1.03577
-1.02692
-1.0257
-1.01898
-1.00891
-1.00647
-1.0022
-0.991516
-0.982666
-0.980225
-0.974121
-0.960388
-0.962219
-0.953064
-0.949402
-0.941162
-0.942078
-0.934753
-0.926819
-0.916748
-0.914612
-0.909424
-0.906067
-0.899658
-0.895386
-0.866394
-0.888672
-0.880432
-0.87616
-0.876465
-0.873718
-0.868835
-0.858154
-0.852356
-0.844727
-0.840454
-0.849609
-0.831299
-0.82428
-0.81665
-0.811768
-0.805664
-0.806885
-0.791321
-0.793762
-0.7901
-0.785522
-0.777283
-0.77179
-0.77301
-0.767212
-0.761719
-0.7547
-0.752258
-0.74585
-0.747681
0.55481
1.96075
2.67548
3.02032
3.18268
3.27057
3.3078
3.33435
3.34869
3.349
3.3371
3.33374
3.32245
3.31665
3.29895
3.28705
3.27484
3.26202
3.24219
3.22479
3.19763
3.18329
3.17139
3.15186
3.13049
3.10699
3.08807
3.0658
3.05054
3.0304
3.01239
2.98767
2.96417
2.9483
2.92267
2.90894
2.88666
2.86682
2.85248
2.83112
2.80762
2.79297
2.77527
2.7533
2.7359
2.71423
2.70538
2.68555
2.66968
2.65808
2.63062
2.60345
2.58881
2.57355
2.55615
2.5415
2.52441
2.50824
2.49969
2.47467
2.46124
0.977783
-0.360413
-1.03912
-1.36505
-1.53381
-1.61682
-1.66779
-1.70074
-1.71661
-1.72882
-1.73431
-1.74652
-1.74438
-1.74377
-1.74713
-1.74988
-1.73706
-1.73401
-1.72363
-1.71722
-1.70746
-1.70074
-1.69098
-1.68121
-1.67297
-1.6629
-1.64673
-1.64093
-1.61926
-1.61774
-1.60645
-1.59515
-1.58295
-1.57196
-1.56128
-1.55396
-1.54327
-1.52985
-1.52191
-1.51031
-1.50116
-1.49017
-1.48285
-1.47705
-1.45966
-1.4566
-1.44226
-1.43463
-1.42456
-1.41479
-1.40564
-1.40045
-1.38794
-1.38397
-1.37329
-1.36292
-1.35101
-1.34308
-1.33423
-1.32507
-1.31866
-1.31348
-1.30829
-1.30066
-1.29395
-1.2854
-1.27533
-1.27411
-1.26617
-1.25031
-1.24908
-1.24176
-1.2262
-1.22986
-1.21674
-1.21155
-1.20789
-1.20239
-1.19537
-1.18256
-1.1734
-1.17401
-1.16425
-1.15845
-1.15356
-1.14502
-1.14136
-1.13617
-1.12793
-1.11816
-1.11053
-1.10687
-1.10504
-1.10107
-1.09558
-1.08154
-1.08368
-1.07513
-1.06293
-1.05835
-1.04889
-1.0495
-1.04004
-1.03302
-1.03058
-1.02325
-1.01685
-1.01227
-1.00128
-1.00037
-0.995178
-0.989075
-0.982971
-0.976562
-0.967102
-0.963135
-0.956116
-0.953979
-0.948486
-0.750122
0.981445
2.10052
2.64099
2.89734
3.01788
3.08319
3.11768
3.13385
3.14087
3.1485
3.14758
3.14392
3.1366
3.12958
3.11371
3.10547
3.08472
3.06793
3.05298
3.03528
3.02185
3.00537
2.97821
2.96112
2.94434
2.92969
2.90741
2.8891
2.86713
2.84149
2.82074
2.80609
2.7951
2.76642
2.74597
2.7243
2.70386
2.69165
2.66724
2.65625
2.63367
2.6178
2.60071
2.58881
2.56897
2.54791
2.53387
2.52014
2.50366
2.48077
2.4649
2.4472
2.4292
2.40997
2.39227
2.38068
2.36145
2.33948
2.33063
2.31995
2.29828
2.29126
2.27478
2.04865
0.308838
-0.798645
-1.35773
-1.62323
-1.74744
-1.81976
-1.86554
-1.8924
-1.90826
-1.92047
-1.92352
-1.92627
-1.92657
-1.93176
-1.92963
-1.92291
-1.91742
-1.90796
-1.89941
-1.89362
-1.88446
-1.87378
-1.87256
-1.85333
-1.83624
-1.82526
-1.81396
-1.79993
-1.78467
-1.77368
-1.76422
-1.7514
-1.74255
-1.72943
-1.71997
-1.70776
-1.70563
-1.68976
-1.67694
-1.66534
-1.65741
-1.64276
-1.63177
-1.6275
-1.61224
-1.60156
-1.5921
-1.58478
-1.56769
-1.56158
-1.54846
-1.54053
-1.53198
-1.5213
-1.52313
-1.51215
-1.50665
-1.49811
-1.48895
-1.47308
-1.46515
-1.45294
-1.44867
-1.44104
-1.43219
-1.42731
-1.41998
-1.40991
-1.39954
-1.39069
-1.38062
-1.37177
-1.36627
-1.36139
-1.35376
-1.3443
-1.3443
-1.32751
-1.32446
-1.31775
-1.3089
-1.30341
-1.29669
-1.28937
-1.27838
-1.27106
-1.26251
-1.25732
-1.24451
-1.24054
-1.22742
-1.22742
-1.21948
-1.21582
-1.21002
-1.20087
-1.19568
-1.18622
-1.20178
-1.17523
-1.16516
-1.16241
-1.15631
-1.14929
-0.803833
0.915527
1.96747
2.47162
2.72064
2.83051
2.8949
2.92542
2.94159
2.95624
2.95502
2.9538
2.94952
2.94525
2.94159
2.92389
2.91199
2.9007
2.88574
2.86713
2.85217
2.82928
2.81219
2.7951
2.77863
2.76093
2.74567
2.72552
2.70721
2.68982
2.66968
2.64618
2.6355
2.60803
2.58881
2.57507
2.55768
2.53601
2.51953
2.50214
2.48535
2.46307
2.4469
2.43134
2.42279
2.39868
2.3877
2.37
2.35565
2.34039
2.32544
2.30774
2.2879
2.27478
2.26776
2.23724
2.22839
2.21344
2.20398
2.19299
2.1759
2.15668
2.14111
2.12799
2.10999
2.09198
2.08374
2.07184
2.05841
2.04224
1.02295
-0.508728
-1.32263
-1.71692
-1.90948
-2.01111
-2.06085
-2.09381
-2.11578
-2.12341
-2.12952
-2.13776
-2.13806
-2.1402
-2.13348
-2.13318
-2.12799
-2.11212
-2.10541
-2.09076
-2.08038
-2.0697
-2.05841
-2.05292
-2.0343
-2.03918
-2.01813
-2.00256
-1.99554
-1.97815
-1.9693
-1.9577
-1.95343
-1.93085
-1.91711
-1.90369
-1.90063
-1.87958
-1.8631
-1.85089
-1.83777
-1.82648
-1.81946
-1.80817
-1.80969
-1.78192
-1.78131
-1.7691
-1.75385
-1.74011
-1.72852
-1.7215
-1.71112
-1.70593
-1.6864
-1.67511
-1.6745
-1.65924
-1.65253
-1.63879
-1.62323
-1.61255
-1.60736
-1.59729
-1.59576
-1.57898
-1.57471
-1.56464
-1.56219
-1.5506
-1.53778
-1.53015
-1.52344
-1.51245
-1.51184
-1.5033
-1.48621
-1.48163
-1.47491
-1.46393
-1.45905
-1.44958
-1.44196
-1.43341
-1.42853
-1.42609
-1.40442
-1.40411
-1.39771
-1.39252
-1.37787
-1.37512
-1.36169
-1.35773
-1.34552
-1.3382
-1.33514
-1.3205
-1.31073
-1.30219
-1.29852
-1.29639
-1.28326
-1.2796
-1.26831
-1.25824
-1.24054
-1.25061
-1.24146
-1.23566
-1.23383
-1.22345
-1.21918
-1.21185
-0.935669
0.795593
1.87592
2.40173
2.65503
2.7771
2.83569
2.87048
2.88788
2.90039
2.90649
2.90375
2.89673
2.8952
2.87689
2.87048
2.85767
2.84271
2.82806
2.81311
2.79755
2.78076
2.76276
2.74414
2.7301
2.71179
2.69226
2.66968
2.65472
2.63855
2.61871
2.60223
2.5705
2.55707
2.54547
2.52869
2.50824
2.49298
2.47772
2.4646
2.44415
2.42493
2.40814
2.38861
2.37762
2.36389
2.34497
2.33368
2.31262
2.29889
2.27966
2.26532
2.24945
2.23419
0.804749
-0.548401
-1.24664
-1.58234
-1.74377
-1.83624
-1.88629
-1.91284
-1.9339
-1.94977
-1.94977
-1.95892
-1.95648
-1.95709
-1.95648
-1.94824
-1.9458
-1.93756
-1.93146
-1.90857
-1.91467
-1.90521
-1.89148
-1.87897
-1.86493
-1.84906
-1.83716
-1.82648
-1.81427
-1.8042
-1.78497
-1.7807
-1.76727
-1.75232
-1.74561
-1.73218
-1.71967
-1.70807
-1.68854
-1.67328
-1.67938
-1.67145
-1.66107
-1.64948
-1.63971
-1.62445
-1.61072
-1.60553
-1.60187
-1.58539
-1.55273
-1.56555
-1.55853
-1.55304
-1.54022
-1.52954
-1.51703
-1.50513
-1.49261
-1.48712
-1.47919
-1.4679
-1.45874
-1.45325
-1.44775
-1.43188
-1.42303
-1.41479
-1.40747
-1.39648
-1.39771
-1.38611
-1.37787
-1.37115
-1.36414
-1.35681
-1.34277
-1.33575
-1.32477
-1.32233
-1.31226
-1.30798
-1.29944
-1.29669
-1.28448
-1.27808
-1.27167
-1.26282
-1.2558
-1.24847
-1.23444
-1.22955
-1.22253
-1.21582
-1.20453
-1.20117
-1.19019
-1.18469
-1.17523
-1.16425
-1.16577
-1.16119
-1.15112
-1.14624
-1.1441
-1.13281
-1.1264
-1.11542
-1.11237
-1.10504
-1.10046
-1.091
-1.08307
-1.07483
-1.0672
-1.06049
-1.05591
-1.05103
-1.04279
-1.03149
-1.01501
-1.02295
-1.01685
-1.01288
-1.00159
-0.997009
-0.98938
-0.984192
-0.974426
-0.978088
-0.960693
-0.961914
-0.953064
-0.944519
-0.939026
-0.932922
-0.927429
-0.922546
-0.917358
-0.911865
-0.905151
-0.89447
-0.26886
1.38916
2.323
2.76855
2.9837
3.0896
3.14423
3.172
3.18451
3.18939
3.19244
3.18634
3.18085
3.172
3.16284
3.14941
3.14484
3.13141
3.11584
3.10364
3.078
3.05634
3.03986
3.0191
3.00079
2.98889
2.96478
2.94739
2.92755
2.90771
2.88727
2.86835
2.84851
2.82745
2.81036
2.78992
2.77802
2.5119
0.775757
-0.325317
-0.872498
-1.13647
-1.27533
-1.34521
-1.39221
-1.41876
-1.43982
-1.45416
-1.45782
-1.46576
-1.47247
-1.47797
-1.47675
-1.46637
-1.46729
-1.46698
-1.45691
-1.44867
-1.44073
-1.43158
-1.42731
-1.41602
-1.41724
-1.3974
-1.38947
-1.37146
-1.36444
-1.35559
-1.34186
-1.33331
-1.32629
-1.31866
-1.30829
-1.29913
-1.27991
-1.27075
-1.26526
-1.25824
-1.25122
-1.23596
-1.23535
-1.22589
-1.21796
-1.21399
-1.20819
-1.19629
-1.185
-1.17828
-1.16577
-1.15875
-1.15265
-1.15265
-1.13403
-1.12762
-1.12122
-1.10809
-1.09863
-1.09772
-1.08276
-1.08124
-1.08521
-1.06934
-1.05988
-1.05377
-1.05133
-1.05499
-1.03394
-1.02814
-1.01654
-1.01105
-1.00525
-0.99762
-0.995178
-0.986633
-0.976562
-0.975342
-0.971985
-0.960388
-0.953369
-0.942688
-0.940552
-0.930481
-0.923157
-0.91095
-0.912781
-0.908508
-0.901794
-0.895996
-0.895691
-0.884399
-0.880737
-0.879211
-0.873108
-0.869446
-0.861816
-0.852356
-0.849304
-0.844727
-0.835571
-0.831604
-0.820007
-0.811462
-0.813599
-0.812073
-0.80719
-0.792847
-0.791626
-0.784912
-0.782776
-0.776062
-0.769653
-0.765381
-0.759583
-0.7547
-0.743103
-0.736694
-0.737305
-0.732117
-0.72998
-0.72052
-0.719299
-0.710144
-0.705566
-0.701294
-0.694885
-0.68573
-0.686035
-0.689697
-0.672302
-0.66925
-0.665588
-0.661621
-0.654907
-0.643616
-0.645752
-0.65155
-0.6427
-0.638733
-0.632935
-0.626526
-0.616455
-0.610046
-0.608215
-0.603638
-0.596924
-0.595703
-0.597229
-0.586243
-0.583191
-0.576477
-0.567017
-0.568848
-0.560608
-0.562439
-0.557556
-0.560913
-0.550537
-0.545044
-0.535889
-0.539551
-0.531311
-0.523682
-0.523071
-0.521545
-0.513611
-0.503235
-0.508423
-0.502625
-0.491943
-0.495911
-0.485535
-0.480652
-0.480042
-0.474854
-0.476379
-0.472717
-0.464478
-0.462952
-0.462036
-0.455933
-0.448914
-0.441895
-0.437317
-0.436401
-0.43396
-0.428467
-0.427551
-0.417175
-0.420227
-0.417175
-0.410767
-0.403748
-0.400696
-0.400085
-0.396118
-0.392456
-0.38269
-0.380554
-0.378113
-0.376282
-0.372314
-0.369263
-0.361633
-0.355835
-0.358582
-0.350952
-0.348511
-0.346375
-0.346985
-0.34668
-0.344849
-0.342102
-0.3302
-0.328674
-0.322571
-0.322571
-0.317993
-0.313721
-0.308228
-0.307617
-0.307617
-0.303345
-0.293274
-0.296936
-0.288086
-0.28656
-0.285645
-0.284729
-0.282898
-0.282593
-0.278015
-0.274353
-0.268555
-0.26123
-0.250854
-0.256042
-0.260315
-0.254822
-0.250244
-0.248108
-0.246277
-0.240784
-0.232849
-0.233459
-0.23468
-0.228882
-0.226135
-0.221252
-0.219421
-0.21759
-0.220337
-0.215149
-0.211792
-0.210266
-0.203857
-0.201416
-0.198364
-0.195312
-0.187988
-0.187988
-0.185852
-0.189209
-0.180054
-0.170898
-0.171814
-0.168762
-0.167847
-0.1651
-0.162354
-0.159302
-0.156555
-0.150146
-0.156555
-0.147705
-0.151062
-0.142822
-0.146179
-0.140686
-0.139465
-0.133057
-0.131836
-0.128174
-0.127869
-0.122986
-0.12085
-0.122681
-0.115967
-0.112915
-0.11261
-0.119019
-0.117798
-0.118103
-0.10498
-0.102539
-0.0973511
-0.0979614
-0.0958252
-0.0952148
-0.0927734
-0.0915527
-0.0881958
-0.0906372
-0.0765991
-0.0775146
-0.0747681
-0.0689697
-0.0701904
-0.0668335
-0.0650024
-0.0604248
-0.0570679
-0.0613403
-0.06073
-0.0588989
-0.0543213
-0.0552368
-0.0567627
-0.0531006
-0.045166
-0.0427246
-0.0415039
-0.0411987
-0.0219727
-0.0338745
-0.0344849
-0.0357056
-0.0350952
-0.027771
-0.0286865
-0.0320435
-0.0335693
-0.0231934
-0.0204468
-0.0219727
-0.0192261
-0.0119019
-0.00854492
-0.00610352
-0.0137329
-0.0100708
-0.0088501
-0.00396729
0
0
0.00244141
0.00488281
0.000610352
0.00579834
0.012207
0.0100708
0.0143433
0.0106812
0.0134277
0.0180054
0.0234985
0.0259399
0.0283813
0.0271606
0.0241089
0.0247192
0.0265503
0.0289917
0.0360107
0.0326538
0.0354004
0.0372314
0.0363159
0.0360107
0.0436401
0.0418091
0.050354
0.0500488
0.055542
0.0491333
0.0595093
0.055542
0.0579834
0.0613403
0.0582886
0.0543213
0.0582886
0.0622559
0.0588989
0.0759888
0.0662231
0.0656128
0.0720215
0.0732422
0.0741577
0.0769043
0.0692749
0.0726318
0.0640869
0.0717163
0.0744629
0.0765991
0.0830078
0.0842285
0.0836182
0.0848389
0.0759888
0.0848389
0.0772095
0.0805664
0.0857544
0.0863647
0.0958252
0.0970459
0.101624
0.0994873
0.098877
0.0967407
0.110779
0.108032
0.0875854
0.105286
0.103149
0.107117
0.105286
0.102844
0.114746
0.111694
0.115662
0.0894165
0.114746
0.115662
0.116882
0.113831
0.118103
0.121155
0.118408
0.122986
0.122681
0.101929
0.12085
0.12085
0.124207
0.126343
0.133667
0.132141
0.128784
0.121155
0.129089
0.120239
0.128784
0.131836
0.132446
0.135498
0.137024
0.137939
0.144958
0.144653
0.151978
0.144348
0.141907
0.141907
0.141907
0.147095
0.154724
0.151062
0.149231
0.146179
0.150146
0.159912
0.151978
0.153198
0.158386
0.156555
0.158691
0.162354
0.158691
0.163269
0.151367
0.16571
0.160217
1.26221
2.74109
3.51227
3.88123
4.05396
4.14246
4.17542
4.19861
4.20227
4.20898
4.19708
4.20013
4.18884
4.1748
4.16412
4.14276
4.11957
4.11621
4.08081
4.05884
4.03564
4.00696
3.98712
3.96515
3.94562
3.91754
3.89191
3.86993
3.84277
3.82965
3.80035
3.77563
3.75122
3.72955
3.70697
3.68134
3.65936
3.63647
3.60748
2.7182
1.12366
0.260925
-0.162964
-0.377197
-0.481873
-0.544434
-0.600281
-0.620728
-0.646973
-0.667419
-0.681763
-0.687561
-0.688171
-0.691223
-0.699158
-0.696106
-0.697327
-0.695496
-0.697937
-0.69397
-0.691833
-0.681763
-0.681458
-0.674744
-0.667114
-0.653076
-0.653076
-0.6427
-0.632935
-0.634155
-0.632935
-0.628967
-0.623474
-0.617981
-0.617065
-0.603943
-0.596924
-0.592957
-0.5896
-0.587463
-0.58197
-0.577087
-0.571289
-0.561523
-0.555115
-0.546875
-0.539246
-0.541687
-0.534668
-0.551453
-0.527649
-0.523376
-0.52063
-0.513916
-0.510559
-0.506897
-0.505981
-0.499573
-0.492859
-0.487976
-0.488892
-0.479431
-0.471497
-0.473938
-0.473633
-0.464172
-0.4599
-0.45929
-0.456543
-0.455627
-0.449829
-0.44281
-0.44342
-0.440979
-0.436401
-0.432434
-0.421143
-0.423889
-0.417786
-0.415955
-0.410461
-0.404358
-0.406189
-0.401306
-0.402832
-0.395813
-0.384521
-0.386047
-0.389099
-0.38269
-0.38269
-0.380554
-0.378723
-0.372314
-0.372009
-0.366516
-0.366211
-0.364685
-0.353699
-0.350342
-0.362244
-0.358582
-0.354309
-0.350342
-0.3479
-0.340881
-0.335693
-0.329285
-0.332336
-0.325928
-0.333862
-0.318604
-0.32135
-0.320435
-0.318909
-0.317688
-0.315552
-0.305786
-0.308533
-0.306396
-0.305481
-0.310974
-0.304565
-0.30304
-0.299072
-0.299377
-0.294495
-0.28717
-0.287781
-0.287781
-0.281067
-0.282288
-0.278931
-0.270081
-0.263672
-0.266418
-0.0534058
1.6864
2.78107
3.31787
3.56995
3.68958
3.74725
3.7854
3.78235
3.79364
3.78998
3.78876
3.77899
3.76984
3.76007
3.74146
3.72192
3.70605
3.68561
3.66943
3.64563
3.62488
3.60016
3.58154
3.5553
3.5321
3.51105
3.48602
2.8595
1.18683
0.224304
-0.239868
-0.469971
-0.596619
-0.664368
-0.715637
-0.747986
-0.762329
-0.783386
-0.792236
-0.808105
-0.809021
-0.817566
